-202
-199
-200
-202
-201
-196
-193
-191
-183
-173
-164
-160
-148
-137
-125
-112
-97
-84
-76
-67
-63
-48
-32
-19
-9
5
18
31
35
37
40
42
46
47
50
51
50
49
48
48
40
34
30
27
25
24
23
13
2
-2
0
-2
-7
-8
-9
-10
-10
-11
-17
-22
-20
-8
1
3
4
-2
1
6
19
38
53
61
56
60
64
73
78
82
81
84
91
92
94
86
78
75
73
66
44
32
25
23
22
21
19
4
-3
-4
-3
-10
-15
-15
-17
-24
-32
-39
-41
-32
1
67
162
274
390
509
616
708
804
855
835
699
527
380
291
252
211
165
103
44
5
-12
-24
-49
-95
-139
-163
-175
-180
-181
-173
-167
-166
-166
-164
-169
-175
-178
-177
-180
-181
-182
-186
-179
-173
-184
-213
-237
-243
-239
-230
-235
-237
-236
-230
-229
-229
-221
-218
-212
-206
-188
-174
-164
-162
-160
-146
-134
-114
-101
-93
-94
-89
-72
-53
-40
-32
-26
-19
-9
-1
8
14
20
20
14
3
-6
-10
-9
-6
-10
-15
-18
-19
-20
-27
-38
-50
-58
-61
-61
-57
-60
-65
-64
-55
-54
-64
-70
-68
-64
-62
-59
-64
-65
-60
-44
-31
-26
-24
-18
-2
9
11
8
14
13
9
14
26
35
24
12
8
10
10
3
-8
-31
-53
-62
-57
-50
-60
-71
-76
-81
-93
-102
-102
-106
-112
-120
-119
-119
-127
-135
-121
-69
15
136
265
384
477
562
646
728
745
674
514
352
243
180
150
108
54
-15
-59
-85
-111
-147
-183
-220
-238
-251
-261
-265
-265
-257
-249
-245
-252
-258
-269
-276
-284
-282
-269
-262
-262
-282
-293
-292
-286
-285
-288
-283
-287
-293
-310
-315
-314
-306
-299
-306
-306
-305
-289
-284
-274
-266
-257
-242
-232
-216
-203
-186
-177
-167
-158
-153
-137
-119
-110
-119
-122
-112
-93
-80
-83
-93
-97
-92
-87
-81
-80
-75
-78
-80
-85
-93
-103
-107
-112
-120
-129
-136
-137
-138
-143
-140
-130
-131
-141
-145
-142
-144
-146
-137
-122
-125
-129
-125
-113
-94
-80
-76
-90
-96
-89
-78
-72
-63
-57
-53
-47
-38
-31
-28
-29
-34
-38
-40
-50
-63
-75
-86
-100
-113
-114
-112
-111
-119
-128
-133
-132
-132
-137
-132
-128
-135
-148
-158
-154
-137
-93
-10
105
218
336
439
536
614
695
727
684
552
394
258
179
131
84
29
-40
-105
-144
-172
-198
-229
-264
-277
-282
-283
-286
-283
-277
-276
-274
-277
-270
-274
-273
-276
-273
-275
-288
-286
-290
-288
-296
-298
-302
-308
-310
-315
-310
-314
-312
-313
-306
-299
-300
-293
-289
-278
-276
-263
-253
-249
-243
-230
-211
-200
-187
-179
-163
-148
-140
-131
-122
-109
-100
-90
-82
-77
-76
-73
-70
-68
-73
-71
-68
-67
-70
-79
-80
-80
-85
-86
-88
-93
-103
-106
-109
-112
-116
-123
-124
-126
-127
-129
-128
-127
-129
-125
-120
-114
-117
-118
-113
-109
-102
-94
-84
-77
-67
-57
-47
-40
-38
-31
-21
-18
-20
-16
-6
-4
-11
-17
-18
-14
-18
-30
-44
-57
-67
-76
-76
-78
-86
-93
-94
-96
-97
-95
-94
-99
-106
-114
-121
-130
-132
-116
-68
10
124
250
369
478
564
674
754
797
742
604
433
287
200
150
110
58
-8
-58
-80
-90
-109
-134
-168
-209
-229
-239
-232
-234
-236
-230
-227
-222
-228
-221
-221
-220
-225
-224
-224
-230
-232
-234
-230
-235
-239
-242
-246
-247
-250
-251
-255
-252
-248
-246
-240
-233
-231
-226
-216
-211
-204
-191
-176
-166
-160
-148
-139
-127
-114
-100
-85
-72
-64
-56
-47
-38
-30
-18
-7
-12
-21
-22
-18
-16
-17
-13
-16
-17
-23
-28
-30
-32
-35
-44
-50
-56
-55
-55
-57
-65
-75
-75
-72
-73
-72
-70
-70
-74
-73
-69
-61
-58
-59
-59
-49
-36
-27
-18
-11
-2
8
16
24
25
21
24
34
39
38
38
37
23
19
24
21
0
-14
-15
-20
-25
-32
-38
-45
-52
-52
-51
-51
-57
-59
-61
-68
-84
-92
-87
-72
-40
20
122
230
353
463
557
647
718
788
775
686
530
373
282
228
186
127
65
7
-32
-61
-90
-121
-160
-190
-199
-205
-207
-211
-203
-198
-200
-198
-195
-196
-203
-200
-197
-200
-206
-208
-205
-204
-205
-212
-216
-217
-222
-224
-224
-221
-222
-221
-218
-215
-210
-202
-198
-192
-185
-179
-167
-157
-144
-138
-124
-109
-96
-84
-70
-59
-48
-37
-28
-13
-5
3
12
20
27
30
36
38
43
42
42
41
36
34
32
31
29
27
20
13
8
7
7
3
-3
-9
-12
-12
-15
-13
-10
-6
-10
-11
-7
-2
-2
-4
-3
0
6
12
23
37
47
52
57
67
71
76
80
88
86
89
96
105
108
96
87
82
86
86
75
63
44
34
28
30
26
18
17
17
12
4
1
2
2
-1
-6
-12
-22
-23
-3
38
104
207
326
456
561
647
736
811
864
799
668
503
367
294
247
209
153
91
34
5
-6
-24
-53
-92
-122
-138
-143
-143
-144
-140
-132
-126
-127
-132
-132
-133
-133
-138
-140
-140
-140
-142
-146
-145
-149
-158
-160
-158
-161
-166
-163
-157
-154
-160
-162
-159
-153
-147
-137
-121
-113
-110
-111
-101
-88
-77
-68
-55
-41
-25
-13
-10
1
14
27
38
48
55
55
60
64
68
72
75
77
79
78
77
72
66
62
61
59
49
41
40
39
35
28
30
28
23
19
22
24
20
18
19
20
16
15
15
16
19
21
34
43
48
51
60
68
76
83
85
95
101
103
103
112
122
119
116
106
100
97
102
105
83
62
49
43
33
27
25
27
20
9
7
10
7
-5
-10
-7
-9
-17
-22
-17
-6
21
84
179
291
413
518
609
697
777
831
780
658
482
346
272
222
184
136
86
28
0
-8
-12
-38
-90
-137
-159
-164
-169
-173
-168
-164
-156
-155
-157
-157
-158
-159
-160
-161
-168
-178
-177
-177
-180
-183
-181
-185
-194
-198
-203
-204
-211
-211
-213
-215
-215
-213
-203
-194
-185
-185
-178
-169
-163
-156
-148
-127
-113
-100
-93
-81
-70
-57
-45
-36
-28
-18
-5
7
7
3
4
11
16
13
10
7
1
-8
-14
-12
-17
-26
-30
-27
-31
-39
-46
-54
-64
-71
-72
-72
-74
-65
-66
-67
-70
-70
-67
-63
-58
-61
-65
-68
-66
-59
-42
-26
-21
-16
-10
-6
-8
0
9
13
13
14
23
23
10
-3
-8
-4
-7
-20
-36
-48
-58
-62
-60
-63
-74
-89
-86
-86
-89
-91
-94
-98
-104
-106
-116
-134
-140
-128
-85
-11
99
215
334
436
532
614
701
745
723
604
452
312
234
189
138
82
10
-58
-94
-119
-147
-184
-216
-233
-248
-256
-253
-244
-250
-256
-250
-245
-238
-243
-245
-249
-249
-249
-255
-256
-259
-254
-256
-262
-276
-281
-275
-279
-283
-292
-286
-283
-279
-276
-272
-264
-263
-254
-248
-235
-231
-225
-214
-196
-180
-171
-163
-154
-142
-133
-124
-111
-100
-92
-83
-71
-64
-60
-55
-42
-41
-41
-46
-52
-51
-47
-44
-47
-54
-61
-64
-63
-70
-77
-79
-77
-84
-93
-98
-98
-99
-104
-104
-104
-102
-104
-100
-90
-84
-83
-90
-96
-101
-101
-94
-81
-68
-56
-45
-38
-28
-23
-18
-11
-1
-1
-4
-2
5
7
8
6
-1
-8
-4
-1
-10
-34
-53
-69
-75
-73
-71
-72
-76
-80
-86
-90
-90
-92
-90
-87
-95
-112
-120
-118
-101
-61
21
134
245
358
457
564
651
739
770
711
559
385
251
179
134
91
40
-17
-62
-78
-89
-102
-132
-179
-206
-216
-215
-224
-219
-212
-212
-213
-212
-202
-201
-193
-190
-198
-210
-222
-222
-224
-222
-230
-230
-229
-238
-246
-248
-242
-249
-258
-262
-253
-246
-240
-231
-223
-221
-223
-213
-201
-193
-180
-160
-144
-141
-140
-132
-112
-94
-80
-74
-65
-56
-46
-34
-27
-16
-15
-16
-16
-12
-7
-8
-18
-28
-25
-19
-18
-24
-30
-32
-34
-38
-46
-47
-47
-55
-68
-73
-66
-68
-71
-68
-65
-64
-70
-71
-65
-56
-55
-51
-43
-32
-28
-23
-10
0
5
9
12
21
32
39
39
38
41
50
52
50
37
30
26
24
22
17
3
-10
-16
-15
-20
-37
-52
-51
-46
-46
-56
-59
-57
-58
-66
-77
-81
-89
-80
-45
27
123
240
355
463
564
644
737
774
749
628
469
341
260
214
169
125
54
-15
-48
-74
-101
-138
-172
-188
-194
-192
-198
-200
-200
-191
-179
-172
-176
-188
-197
-205
-203
-199
-195
-194
-200
-200
-204
-206
-213
-214
-210
-219
-235
-238
-225
-223
-230
-233
-225
-216
-210
-201
-197
-185
-174
-171
-165
-154
-141
-123
-105
-95
-90
-83
-69
-62
-51
-41
-26
-15
-4
5
7
12
8
1
-2
-1
-7
-11
-8
-12
-21
-25
-20
-23
-28
-32
-36
-41
-49
-52
-53
-57
-59
-58
-54
-56
-59
-61
-64
-63
-59
-50
-41
-34
-36
-40
-43
-34
-19
-6
6
16
20
17
24
30
33
30
38
50
54
49
37
29
22
24
22
11
-2
-10
-12
-20
-23
-25
-27
-34
-39
-42
-52
-58
-57
-56
-58
-67
-76
-86
-78
-55
-6
82
199
308
425
530
628
712
764
767
657
503
346
247
203
159
108
39
-21
-55
-67
-68
-84
-134
-188
-210
-210
-210
-209
-206
-200
-198
-199
-196
-191
-190
-195
-197
-201
-206
-210
-211
-213
-216
-215
-221
-226
-230
-232
-239
-245
-239
-232
-228
-232
-232
-232
-229
-223
-225
-217
-203
-189
-181
-164
-154
-151
-144
-133
-118
-106
-89
-77
-72
-70
-60
-40
-24
-14
-16
-20
-22
-14
-9
-11
-10
-7
-13
-28
-36
-32
-27
-30
-35
-40
-47
-50
-53
-56
-61
-61
-65
-67
-72
-73
-72
-72
-71
-72
-70
-67
-65
-64
-61
-51
-43
-34
-22
-8
-6
-5
3
16
25
26
32
33
39
44
48
48
35
29
31
34
28
11
-4
-12
-12
-13
-13
-13
-14
-15
-11
-7
-10
-9
-9
-9
-15
-25
-32
-38
-26
8
69
162
271
386
503
594
684
766
836
843
736
593
435
343
285
234
183
116
47
-12
-45
-73
-99
-124
-139
-150
-164
-174
-176
-179
-176
-175
-176
-177
-180
-185
-190
-193
-199
-200
-204
-208
-213
-220
-220
-224
-228
-233
-230
-236
-241
-239
-239
-234
-236
-226
-221
-215
-209
-201
-186
-177
-168
-160
-148
-138
-129
-116
-100
-86
-76
-59
-45
-35
-28
-19
-8
2
7
12
18
22
20
17
16
17
20
20
15
8
6
6
3
-2
-8
-7
-8
-13
-21
-25
-21
-26
-34
-35
-29
-27
-29
-27
-26
-24
-25
-20
-12
-3
0
7
17
21
28
34
45
52
55
63
67
70
70
82
91
95
93
83
76
69
69
62
51
39
30
21
16
16
10
5
3
2
-1
-8
-10
-10
-11
-16
-19
-30
-41
-39
-14
39
128
241
363
480
576
668
753
816
829
758
625
465
355
282
238
194
145
84
34
10
-8
-29
-62
-95
-114
-128
-132
-133
-139
-140
-140
-138
-141
-144
-148
-153
-157
-159
-154
-155
-164
-176
-183
-184
-189
-189
-189
-190
-204
-208
-205
-206
-204
-204
-197
-196
-197
-197
-189
-178
-175
-168
-160
-147
-137
-125
-116
-110
-104
-95
-88
-82
-74
-64
-49
-32
-22
-16
0
17
28
31
33
35
34
36
35
35
29
25
23
22
20
10
7
5
0
-4
-8
-6
-13
-17
-18
-16
-17
-19
-15
-12
-10
-14
-17
-22
-27
-24
-4
36
109
211
332
458
554
651
733
822
853
790
671
499
374
290
242
195
137
72
23
6
-4
-23
-58
-103
-139
-160
-172
-178
-189
-196
-200
-198
-206
-218
-227
-232
-237
-249
-256
-263
-268
-275
-277
-282
-288
-289
-290
-290
-297
-299
-292
-284
-280
-280
-272
-264
-253
-241
-225
-213
-205
-193
-179
-160
-144
-127
-119
-107
-92
-80
-65
-46
-32
-24
-17
-11
-5
2
11
21
30
30
25
26
28
26
21
15
9
8
11
9
3
0
3
5
4
2
3
4
3
2
3
6
6
6
6
8
11
12
16
16
15
13
14
15
15
14
9
13
15
13
13
16
15
11
12
16
16
13
14
18
21
21
16
22
25
31
37
47
56
59
64
64
65
64
66
67
67
70
72
75
70
61
51
53
51
38
23
11
6
-1
-4
-5
-5
-9
-11
-10
-7
-5
-8
-7
-9
-19
-28
-25
-9
19
86
183
293
395
489
581
666
755
797
768
644
474
314
229
185
135
81
23
-24
-48
-51
-50
-74
-119
-162
-192
-202
-210
-214
-212
-205
-203
-205
-202
-207
-210
-212
-209
-212
-215
-215
-214
-210
-214
-217
-224
-225
-225
-223
-222
-226
-225
-225
-215
-212
-211
-208
-200
-192
-191
-181
-169
-156
-146
-140
-130
-121
-112
-98
-80
-66
-53
-44
-35
-30
-21
-10
3
14
21
25
32
37
34
39
41
40
36
36
43
39
34
28
27
24
18
17
10
7
0
-5
-6
-8
-14
-20
-18
-15
-16
-18
-20
-18
-16
-12
-9
-5
-3
1
5
10
12
19
32
42
50
58
64
61
58
57
59
62
64
71
76
72
60
56
58
59
48
36
33
25
20
17
23
24
21
21
22
26
24
26
29
29
23
15
10
14
34
72
146
237
339
456
547
644
718
811
844
795
661
486
356
286
247
206
163
112
66
51
55
55
27
-20
-61
-85
-96
-106
-104
-96
-93
-93
-93
-96
-103
-105
-102
-100
-101
-103
-104
-111
-115
-118
-121
-127
-128
-130
-133
-133
-139
-141
-139
-138
-134
-130
-124
-121
-118
-113
-105
-100
-93
-86
-68
-53
-47
-44
-35
-20
-7
3
12
23
28
34
40
50
60
64
72
70
65
62
67
75
67
63
61
61
51
45
48
49
45
34
30
25
21
17
16
15
13
13
11
8
4
8
15
20
18
16
19
25
30
30
35
42
48
57
67
73
71
76
84
96
96
92
92
101
114
115
109
98
89
81
81
82
67
51
34
24
21
21
16
4
1
-1
-4
-8
-6
2
14
15
-1
-12
-12
7
44
129
241
359
450
504
557
575
595
566
467
280
26
-182
-291
-303
-252
-204
-168
-151
-144
-143
-142
-137
-136
-133
-130
-125
-120
-114
-109
-107
-105
-101
-97
-96
-97
-95
-87
-89
-92
-94
-96
-97
-98
-92
-85
-79
-77
-74
-67
-64
-63
-58
-47
-43
-37
-29
-19
-10
-2
10
15
20
21
27
33
38
41
42
47
46
48
48
51
49
50
51
50
48
45
46
45
43
41
38
38
35
32
32
30
25
20
18
15
11
7
7
7
4
0
1
3
-1
-8
-10
-8
-8
-7
-7
-8
-10
-11
-5
-5
-4
-4
1
5
10
19
24
31
35
40
45
47
49
50
52
54
60
59
55
47
39
41
35
26
12
-3
-11
-19
-24
-34
-37
-42
-49
-52
-52
-52
-56
-62
-62
-62
-69
-79
-81
-72
-48
4
96
212
323
425
518
594
676
730
739
652
492
346
233
182
135
92
36
-21
-62
-83
-94
-115
-152
-186
-205
-212
-214
-213
-211
-209
-208
-209
-207
-205
-203
-209
-210
-209
-216
-220
-223
-224
-227
-233
-236
-238
-241
-251
-253
-254
-253
-252
-253
-250
-252
-246
-243
-232
-231
-225
-214
-208
-199
-195
-182
-171
-162
-153
-141
-128
-117
-106
-93
-81
-74
-70
-60
-52
-48
-41
-36
-37
-40
-41
-39
-37
-38
-46
-46
-48
-54
-61
-63
-67
-73
-80
-84
-86
-89
-93
-95
-97
-101
-106
-108
-110
-110
-106
-100
-92
-97
-96
-95
-93
-88
-80
-67
-58
-52
-45
-34
-29
-27
-24
-17
-14
-15
-9
0
6
0
-8
-10
-12
-14
-24
-34
-48
-60
-64
-68
-71
-81
-88
-87
-86
-88
-89
-87
-85
-87
-89
-93
-98
-96
-77
-38
37
137
255
370
471
552
641
717
757
703
573
400
260
182
134
97
49
-8
-52
-67
-76
-95
-130
-169
-205
-230
-241
-244
-246
-247
-238
-237
-234
-236
-228
-227
-230
-235
-242
-240
-245
-247
-250
-252
-261
-266
-265
-269
-271
-278
-280
-286
-287
-284
-283
-272
-270
-265
-265
-256
-249
-242
-229
-217
-208
-202
-189
-181
-170
-161
-148
-129
-119
-112
-106
-95
-86
-80
-70
-60
-60
-64
-68
-67
-66
-66
-63
-72
-77
-82
-85
-87
-92
-96
-102
-106
-108
-110
-113
-122
-131
-130
-125
-128
-132
-131
-130
-127
-128
-124
-125
-122
-122
-123
-118
-109
-100
-90
-79
-75
-72
-67
-58
-49
-43
-40
-41
-35
-32
-30
-31
-36
-45
-52
-48
-52
-71
-88
-96
-103
-106
-105
-110
-123
-132
-134
-129
-129
-131
-133
-136
-140
-146
-154
-161
-157
-125
-61
33
146
257
376
465
554
621
679
674
579
420
278
192
141
94
41
-17
-76
-119
-148
-173
-205
-240
-268
-271
-273
-273
-277
-276
-270
-271
-264
-263
-258
-269
-270
-268
-268
-269
-275
-272
-276
-279
-284
-286
-286
-292
-292
-290
-283
-287
-286
-285
-284
-280
-279
-270
-267
-258
-253
-244
-236
-229
-220
-211
-198
-193
-184
-172
-160
-151
-142
-128
-114
-104
-97
-91
-83
-76
-74
-70
-68
-69
-71
-71
-68
-75
-79
-82
-84
-87
-94
-97
-100
-102
-108
-112
-113
-120
-124
-128
-125
-129
-132
-131
-130
-129
-133
-129
-129
-130
-131
-128
-120
-118
-114
-109
-98
-93
-86
-78
-70
-63
-58
-51
-44
-42
-44
-41
-33
-22
-22
-29
-39
-42
-42
-42
-50
-68
-83
-91
-97
-99
-103
-108
-112
-117
-120
-125
-124
-126
-130
-130
-131
-140
-153
-149
-132
-95
-22
91
214
346
446
550
630
715
744
696
577
406
262
173
122
76
23
-33
-89
-120
-139
-160
-187
-224
-248
-265
-269
-271
-276
-272
-266
-260
-264
-264
-264
-262
-262
-265
-263
-267
-268
-269
-266
-268
-275
-277
-275
-274
-281
-282
-278
-277
-280
-281
-275
-272
-271
-272
-261
-253
-246
-244
-236
-223
-216
-206
-195
-183
-173
-164
-154
-143
-128
-117
-107
-96
-86
-81
-71
-63
-59
-62
-57
-48
-50
-52
-53
-55
-60
-65
-64
-64
-68
-76
-79
-80
-85
-93
-97
-94
-97
-103
-109
-111
-112
-113
-112
-113
-112
-111
-108
-103
-100
-98
-96
-90
-86
-78
-69
-59
-54
-44
-38
-34
-29
-25
-21
-18
-14
-12
-5
-4
-8
-19
-21
-15
-23
-37
-54
-68
-80
-89
-90
-91
-95
-102
-105
-105
-109
-112
-111
-110
-114
-119
-124
-126
-121
-108
-62
23
135
258
382
472
565
640
727
759
698
563
381
252
171
126
84
32
-22
-68
-82
-84
-97
-127
-169
-202
-226
-240
-242
-240
-234
-238
-236
-237
-239
-243
-246
-243
-247
-251
-253
-249
-250
-256
-257
-256
-259
-270
-272
-273
-273
-273
-268
-271
-277
-273
-268
-259
-256
-248
-244
-240
-236
-231
-218
-206
-197
-192
-178
-166
-157
-148
-137
-124
-115
-106
-101
-91
-85
-82
-72
-65
-61
-65
-66
-64
-65
-69
-70
-69
-73
-78
-82
-84
-88
-97
-101
-103
-106
-114
-116
-116
-119
-120
-122
-124
-126
-128
-128
-126
-124
-120
-117
-117
-118
-119
-114
-107
-98
-91
-84
-79
-70
-64
-57
-49
-44
-41
-41
-34
-32
-33
-36
-42
-50
-62
-64
-68
-80
-97
-110
-117
-126
-135
-142
-144
-144
-151
-152
-153
-155
-167
-172
-174
-185
-189
-192
-179
-150
-83
24
140
262
373
460
550
627
682
652
540
390
238
157
99
52
-4
-66
-121
-160
-190
-221
-255
-285
-309
-316
-320
-324
-328
-328
-320
-325
-325
-324
-325
-329
-336
-333
-336
-335
-342
-344
-346
-351
-354
-359
-357
-364
-368
-373
-373
-381
-386
-382
-386
-381
-383
-372
-368
-362
-354
-348
-335
-336
-328
-322
-307
-300
-292
-276
-264
-250
-246
-233
-226
-219
-215
-209
-198
-195
-192
-194
-190
-192
-193
-196
-199
-201
-205
-208
-211
-215
-219
-224
-224
-230
-233
-241
-241
-245
-252
-253
-253
-256
-261
-259
-260
-259
-262
-260
-256
-255
-254
-256
-250
-248
-246
-240
-228
-220
-218
-210
-202
-196
-194
-187
-183
-184
-183
-180
-169
-170
-175
-188
-193
-195
-199
-208
-225
-234
-248
-252
-255
-260
-266
-276
-275
-280
-279
-283
-282
-284
-291
-292
-301
-302
-305
-280
-230
-146
-35
92
225
335
427
525
602
617
534
374
210
79
9
-40
-84
-139
-199
-244
-266
-285
-308
-343
-375
-396
-403
-407
-410
-405
-407
-400
-401
-400
-400
-401
-399
-406
-402
-404
-401
-408
-410
-409
-413
-413
-424
-421
-428
-429
-440
-440
-436
-441
-437
-438
-427
-431
-428
-421
-412
-401
-399
-382
-373
-359
-350
-336
-320
-314
-297
-286
-271
-267
-254
-244
-234
-225
-216
-210
-210
-208
-204
-199
-198
-204
-207
-207
-206
-212
-212
-215
-219
-224
-228
-230
-236
-241
-243
-244
-245
-247
-252
-251
-245
-247
-245
-243
-237
-240
-240
-234
-233
-229
-228
-220
-212
-202
-192
-181
-170
-165
-161
-155
-147
-146
-142
-134
-128
-122
-125
-128
-139
-138
-136
-139
-153
-169
-180
-187
-189
-193
-192
-190
-195
-200
-204
-201
-206
-208
-207
-204
-211
-222
-225
-216
-185
-124
-14
113
247
365
477
575
675
736
721
605
438
283
186
139
97
55
2
-42
-59
-65
-66
-85
-125
-159
-175
-174
-177
-175
-169
-160
-152
-146
-138
-132
-128
-129
-127
-123
-125
-123
-119
-117
-124
-127
-122
-116
-111
-116
-114
-116
-116
-113
-106
-96
-89
-84
-76
-62
-53
-45
-33
-18
-6
6
22
35
47
60
77
92
109
122
138
152
166
177
190
202
208
219
227
235
229
226
230
234
237
233
239
236
233
228
232
238
229
228
224
227
221
220
223
220
223
221
226
225
231
236
243
250
250
260
261
267
265
280
294
307
316
319
329
332
346
354
360
359
364
376
382
392
382
376
367
370
366
358
352
339
338
333
334
329
325
325
324
330
322
323
319
319
316
309
308
298
300
310
356
432
534
651
759
872
953
1056
1135
1164
1088
926
766
662
613
568
532
481
432
394
365
344
309
277
245
234
223
215
218
220
228
225
231
231
237
237
238
239
235
237
234
239
231
224
219
218
219
217
222
212
203
197
202
209
210
212
212
219
224
236
244
254
261
270
286
292
302
309
325
337
345
360
369
386
387
401
411
419
423
422
436
436
439
433
437
437
436
440
433
436
426
427
420
421
422
415
416
405
404
396
403
400
394
392
388
391
383
390
389
393
392
394
397
392
399
398
413
420
428
431
433
439
435
445
450
461
452
452
458
461
462
451
449
437
435
426
415
399
380
373
361
362
353
346
340
335
338
331
332
325
318
307
300
293
276
277
288
330
395
497
606
713
819
903
1007
1078
1125
1070
927
760
621
546
488
443
376
310
263
229
205
181
155
120
97
83
74
69
67
72
72
67
59
59
58
54
51
48
44
36
30
24
21
16
13
7
0
-4
-13
-17
-22
-26
-28
-26
-22
-25
-26
-22
-13
-11
-7
0
7
16
22
34
43
52
60
72
90
92
98
101
112
119
123
130
131
134
129
132
133
134
133
133
126
113
109
105
103
91
83
82
76
72
64
60
55
51
46
43
42
41
35
30
30
25
21
23
29
28
23
23
32
45
52
59
63
66
70
77
84
88
91
89
91
93
96
98
92
87
78
77
74
66
47
32
24
15
9
4
3
1
0
2
-3
0
-2
-1
1
-2
-8
-22
-26
-15
14
69
164
265
384
489
576
656
726
801
791
710
560
394
294
236
196
146
93
38
3
-11
-24
-51
-98
-139
-169
-193
-204
-209
-210
-212
-218
-226
-232
-237
-241
-241
-244
-249
-256
-265
-269
-278
-281
-290
-293
-296
-298
-306
-311
-314
-322
-323
-320
-317
-320
-322
-311
-304
-296
-291
-281
-272
-264
-253
-242
-230
-224
-215
-205
-188
-178
-163
-145
-130
-115
-110
-105
-105
-98
-87
-76
-77
-84
-88
-82
-79
-80
-83
-84
-87
-97
-105
-105
-109
-112
-115
-117
-114
-116
-122
-133
-136
-134
-128
-116
-110
-115
-124
-124
-119
-117
-115
-109
-102
-94
-85
-72
-62
-60
-53
-36
-13
-8
-9
-11
-12
-8
4
20
21
18
14
14
15
11
-4
-18
-22
-28
-34
-36
-34
-40
-51
-53
-51
-48
-50
-55
-55
-58
-55
-61
-71
-79
-71
-35
35
132
248
364
478
564
637
719
768
768
663
528
415
345
309
264
223
160
106
72
48
17
-24
-57
-78
-89
-103
-116
-118
-115
-115
-114
-113
-115
-121
-116
-110
-115
-122
-125
-130
-131
-137
-142
-147
-152
-155
-161
-165
-166
-172
-171
-170
-170
-170
-170
-165
-163
-157
-148
-138
-125
-113
-102
-87
-69
-55
-43
-29
-10
4
18
39
69
98
131
152
160
160
160
161
158
161
152
145
133
124
114
102
91
84
82
76
71
63
59
56
53
52
45
43
38
36
35
37
34
26
25
22
28
36
40
37
31
20
10
12
23
54
114
210
329
433
554
641
731
793
842
825
717
571
432
351
297
253
198
132
80
49
29
8
-27
-73
-112
-129
-145
-159
-168
-173
-175
-186
-193
-205
-211
-217
-217
-215
-220
-226
-240
-249
-260
-265
-268
-274
-277
-285
-281
-284
-285
-292
-287
-276
-267
-265
-268
-264
-259
-249
-236
-216
-200
-187
-175
-165
-152
-142
-132
-119
-106
-94
-76
-59
-45
-39
-32
-17
-12
-7
-6
-2
1
0
6
3
3
2
3
1
-3
-8
-9
-7
-11
-17
-19
-18
-20
-26
-29
-27
-24
-31
-35
-29
-24
-23
-26
-21
-16
-15
-16
-16
-20
-22
-18
-14
-9
-11
-14
-15
-17
-23
-25
-26
-26
-23
-20
-16
-19
-20
-17
-8
0
7
18
21
25
25
30
36
33
24
21
32
37
32
27
28
31
29
21
7
-7
-22
-32
-33
-34
-37
-49
-52
-54
-57
-58
-55
-51
-59
-61
-69
-85
-98
-98
-69
-9
82
200
311
412
503
580
667
722
735
654
503
356
239
183
133
86
20
-46
-87
-106
-119
-142
-187
-246
-291
-305
-310
-319
-328
-328
-321
-323
-324
-331
-335
-337
-339
-345
-350
-348
-353
-352
-354
-355
-364
-376
-377
-384
-381
-384
-381
-381
-386
-386
-387
-374
-371
-364
-361
-353
-346
-340
-325
-312
-296
-289
-274
-270
-263
-249
-234
-220
-217
-207
-193
-179
-173
-167
-154
-145
-138
-136
-133
-135
-136
-135
-133
-131
-133
-132
-138
-141
-148
-149
-149
-153
-157
-160
-162
-168
-172
-178
-182
-186
-194
-198
-196
-189
-184
-177
-185
-210
-248
-290
-319
-340
-349
-349
-352
-368
-376
-364
-347
-325
-316
-295
-250
-199
-167
-141
-108
-71
-42
-25
-14
-12
-27
-88
-185
-276
-363
-403
-408
-380
-343
-321
-299
-287
-278
-283
-282
-280
-276
-271
-273
-266
-266
-258
-256
-249
-245
-238
-229
-226
-225
-224
-212
-202
-199
-197
-192
-185
-183
-176
-174
-170
-164
-156
-152
-151
-148
-146
-143
-141
-143
-141
-138
-137
-137
-132
-132
-132
-131
-128
-134
-137
-133
-130
-128
-128
-125
-130
-131
-128
-126
-124
-122
-116
-113
-112
-120
-135
-160
-199
-231
-267
-285
-301
-311
-317
-330
-333
-345
-336
-323
-289
-260
-236
-207
-190
-186
-180
-159
-152
-163
-176
-169
-169
-206
-273
-335
-357
-349
-330
-311
-294
-278
-276
-274
-274
-270
-268
-258
-245
-228
-216
-214
-210
-210
-216
-222
-222
-217
-217
-215
-209
-198
-194
-190
-187
-176
-170
-169
-161
-151
-138
-136
-133
-129
-127
-122
-118
-115
-118
-117
-118
-117
-116
-116
-111
-111
-111
-116
-116
-118
-124
-122
-116
-113
-118
-124
-125
-126
-126
-126
-121
-117
-114
-118
-123
-136
-163
-205
-243
-268
-287
-298
-313
-328
-338
-349
-350
-341
-307
-275
-245
-228
-206
-195
-184
-163
-138
-127
-133
-135
-133
-149
-191
-257
-301
-310
-287
-260
-242
-228
-217
-210
-215
-213
-208
-202
-202
-190
-159
-136
-125
-125
-116
-119
-126
-136
-132
-117
-109
-108
-108
-101
-94
-88
-80
-75
-70
-67
-60
-55
-49
-46
-43
-40
-37
-36
-37
-34
-33
-31
-31
-31
-36
-36
-36
-32
-32
-36
-40
-39
-40
-40
-34
-28
-31
-38
-40
-30
-28
-24
-20
-15
-13
-14
-17
-37
-71
-111
-150
-171
-191
-204
-209
-213
-219
-231
-228
-207
-170
-134
-109
-94
-88
-88
-85
-68
-58
-65
-76
-66
-72
-111
-169
-221
-234
-222
-193
-175
-164
-149
-137
-124
-122
-121
-122
-120
-118
-105
-76
-48
-35
-29
-20
-17
-22
-28
-28
-27
-24
-20
-11
2
10
13
18
26
32
37
46
59
68
67
66
58
65
72
79
78
76
80
78
80
81
87
84
82
82
83
88
83
81
80
87
86
89
91
94
96
89
90
96
108
111
97
70
23
-27
-74
-100
-114
-135
-150
-166
-177
-187
-169
-116
-67
-34
-4
29
52
58
64
71
61
56
73
88
60
2
-57
-102
-111
-89
-54
-25
-8
2
11
18
15
13
16
20
24
28
34
31
30
29
32
31
32
38
41
49
49
48
51
60
68
70
80
86
90
89
97
103
110
111
109
111
107
108
108
115
113
110
112
106
98
93
99
102
102
100
103
108
107
107
107
110
106
109
116
119
116
113
120
119
116
104
88
54
3
-48
-85
-104
-119
-129
-129
-125
-121
-111
-85
-48
-5
38
78
116
151
189
217
232
217
208
195
159
92
12
-50
-84
-85
-61
-27
1
10
22
38
52
56
58
63
62
53
43
38
30
20
8
9
13
12
12
18
23
24
26
30
37
42
48
57
63
66
64
68
72
74
73
73
76
76
76
72
67
61
59
64
65
66
62
66
70
71
63
62
69
64
60
60
67
71
75
82
88
89
82
89
97
96
78
49
6
-49
-96
-123
-143
-150
-156
-159
-178
-196
-195
-171
-127
-89
-58
-36
-18
-14
-14
-2
12
14
23
46
51
10
-60
-121
-150
-147
-126
-108
-85
-62
-50
-47
-45
-47
-47
-48
-47
-44
-42
-40
-35
-29
-32
-31
-22
-13
-10
-12
-15
-22
-20
-12
-4
-1
3
13
15
18
20
23
24
24
26
27
33
36
34
24
18
16
19
24
26
30
27
17
10
14
19
19
20
19
15
10
11
17
22
32
48
56
57
64
73
83
83
68
32
-17
-61
-91
-106
-117
-133
-135
-132
-136
-146
-142
-128
-114
-97
-72
-34
11
56
97
137
144
117
76
30
-41
-118
-198
-258
-289
-283
-256
-221
-196
-178
-168
-156
-144
-144
-152
-156
-145
-142
-141
-137
-134
-132
-133
-133
-132
-130
-128
-122
-119
-121
-120
-115
-111
-116
-116
-110
-102
-99
-102
-97
-97
-96
-100
-101
-98
-99
-99
-100
-104
-111
-111
-105
-102
-104
-108
-113
-116
-117
-115
-110
-106
-107
-114
-116
-112
-109
-107
-100
-86
-83
-81
-74
-68
-72
-94
-130
-177
-232
-269
-292
-299
-303
-303
-306
-312
-314
-302
-269
-241
-212
-180
-144
-116
-90
-54
-9
14
13
-1
-41
-100
-179
-256
-315
-352
-338
-318
-296
-278
-265
-257
-255
-246
-244
-240
-233
-212
-193
-182
-173
-164
-160
-169
-178
-178
-171
-166
-167
-166
-167
-160
-154
-143
-136
-134
-130
-126
-122
-121
-115
-108
-104
-104
-104
-105
-102
-99
-100
-97
-98
-102
-111
-108
-102
-101
-101
-96
-90
-93
-95
-96
-92
-93
-96
-95
-92
-88
-87
-81
-73
-71
-71
-66
-55
-56
-71
-107
-152
-200
-243
-264
-280
-290
-297
-296
-293
-297
-280
-250
-201
-170
-146
-127
-103
-69
-25
16
30
11
-13
-52
-113
-189
-262
-302
-303
-289
-268
-251
-237
-228
-227
-228
-237
-240
-240
-236
-224
-207
-184
-167
-153
-145
-141
-145
-149
-158
-154
-144
-136
-131
-131
-129
-123
-118
-116
-111
-104
-98
-96
-96
-90
-89
-87
-85
-82
-80
-83
-84
-89
-85
-85
-79
-75
-77
-78
-74
-69
-72
-74
-70
-64
-61
-61
-61
-60
-56
-52
-44
-36
-30
-29
-24
-13
-10
-22
-49
-86
-132
-170
-191
-202
-209
-214
-215
-217
-218
-208
-180
-137
-98
-73
-56
-32
-3
43
85
108
104
93
68
7
-67
-130
-175
-180
-160
-129
-104
-81
-62
-50
-44
-39
-37
-39
-36
-32
-27
-20
-12
-6
-2
0
0
6
12
18
24
32
35
37
43
55
66
71
73
76
82
86
92
99
103
105
108
116
116
115
118
129
133
131
137
140
145
143
148
153
152
154
153
165
166
170
169
174
171
172
186
196
210
211
218
220
225
227
207
180
142
102
67
48
44
35
38
48
54
49
56
84
122
154
186
224
264
311
353
392
389
369
351
321
273
197
136
91
85
110
149
177
190
199
210
227
231
224
203
180
174
177
187
188
192
195
199
202
206
217
219
223
220
223
225
236
252
250
254
258
272
278
279
277
279
287
284
285
280
285
286
289
290
285
291
287
283
272
275
280
281
284
281
287
283
286
280
283
286
288
291
292
299
293
298
297
300
295
279
256
209
158
106
79
63
54
52
53
53
49
60
85
122
160
196
239
282
331
372
402
398
384
358
311
239
158
94
53
48
70
103
136
151
171
182
193
189
189
192
196
200
192
196
199
205
202
207
213
208
210
211
219
217
221
228
232
233
231
240
243
248
247
255
263
266
263
260
263
260
263
260
260
252
249
254
252
255
250
255
257
264
270
277
288
289
298
298
302
304
310
320
323
336
342
348
346
345
343
335
310
256
194
142
108
82
60
49
36
27
24
39
56
82
112
138
171
209
267
320
366
362
339
316
270
208
122
40
-30
-69
-64
-36
-6
20
42
58
70
72
72
73
74
72
74
80
82
82
79
81
86
88
89
92
97
95
100
106
109
108
111
119
123
123
116
116
122
124
125
120
122
120
119
118
121
121
117
123
122
118
110
111
110
107
108
106
110
103
100
98
102
104
100
110
118
124
122
128
132
135
140
142
132
98
48
-12
-63
-98
-131
-152
-164
-177
-199
-220
-214
-189
-141
-92
-58
-41
-25
-8
12
32
40
44
52
55
23
-34
-104
-157
-181
-176
-156
-131
-108
-90
-82
-78
-81
-78
-60
-34
-19
-4
3
4
-1
-6
-12
-17
-12
-7
3
7
8
10
18
26
26
30
36
43
45
51
59
54
51
53
59
60
61
61
57
54
52
51
47
44
38
38
37
35
34
29
27
27
32
35
35
29
23
25
27
30
30
35
35
37
45
50
38
-2
-50
-103
-152
-187
-207
-225
-235
-243
-246
-242
-223
-199
-163
-129
-96
-74
-47
-13
33
73
80
71
49
16
-42
-120
-186
-237
-247
-232
-209
-190
-177
-165
-161
-158
-163
-165
-170
-170
-162
-144
-117
-96
-78
-70
-66
-72
-81
-85
-88
-83
-75
-63
-58
-55
-52
-51
-54
-52
-49
-44
-40
-36
-34
-36
-36
-33
-27
-25
-32
-40
-40
-33
-36
-41
-44
-42
-43
-44
-40
-37
-36
-37
-32
-27
-36
-49
-52
-43
-39
-35
-34
-33
-26
-16
-1
-10
-36
-82
-135
-176
-210
-230
-245
-249
-250
-258
-259
-256
-234
-208
-179
-151
-132
-114
-93
-66
-25
18
39
36
24
-3
-63
-139
-212
-269
-274
-253
-221
-197
-179
-162
-154
-152
-152
-150
-148
-151
-148
-143
-142
-144
-138
-130
-127
-125
-118
-114
-107
-104
-100
-98
-96
-90
-83
-75
-74
-73
-67
-63
-61
-60
-54
-56
-62
-64
-61
-61
-64
-61
-62
-61
-62
-63
-61
-58
-54
-57
-54
-50
-47
-49
-54
-56
-54
-52
-54
-52
-50
-51
-49
-37
-25
-18
-9
-5
-14
-40
-76
-122
-165
-192
-207
-215
-220
-222
-221
-223
-215
-195
-162
-133
-107
-77
-44
-8
27
64
105
131
134
124
94
33
-50
-130
-182
-196
-181
-164
-146
-129
-112
-100
-97
-102
-116
-129
-136
-130
-125
-136
-142
-140
-133
-129
-122
-117
-116
-108
-101
-92
-96
-100
-96
-88
-82
-82
-77
-74
-71
-73
-71
-65
-62
-62
-61
-62
-71
-78
-76
-70
-67
-71
-75
-76
-72
-73
-73
-78
-78
-81
-82
-77
-72
-73
-78
-83
-82
-83
-78
-71
-59
-49
-45
-46
-45
-48
-54
-76
-115
-159
-197
-218
-231
-247
-256
-259
-252
-252
-242
-224
-192
-156
-126
-104
-85
-63
-29
17
44
53
48
35
-23
-112
-188
-253
-277
-270
-249
-217
-197
-178
-166
-153
-148
-149
-152
-153
-148
-147
-145
-145
-136
-130
-133
-130
-128
-124
-123
-117
-109
-105
-101
-94
-90
-83
-79
-74
-71
-69
-66
-65
-59
-56
-56
-54
-49
-47
-52
-57
-56
-50
-45
-41
-42
-42
-39
-36
-27
-21
-21
-21
-13
4
13
12
6
7
10
14
14
15
16
19
25
23
14
0
-14
-37
-78
-121
-159
-178
-183
-192
-198
-210
-217
-220
-213
-203
-189
-161
-140
-127
-108
-63
3
64
94
89
69
39
-25
-103
-177
-238
-286
-315
-312
-275
-235
-200
-177
-166
-173
-177
-170
-164
-160
-155
-148
-154
-161
-152
-134
-125
-131
-139
-145
-147
-137
-124
-117
-113
-104
-96
-86
-84
-87
-96
-99
-91
-82
-76
-73
-74
-85
-88
-80
-72
-71
-69
-66
-71
-76
-76
-74
-70
-63
-64
-72
-77
-80
-80
-76
-63
-57
-53
-48
-44
-48
-52
-54
-62
-71
-66
-51
-50
-76
-113
-156
-207
-245
-264
-282
-299
-308
-318
-331
-340
-339
-315
-270
-225
-193
-165
-150
-131
-100
-70
-60
-64
-75
-101
-142
-195
-240
-265
-292
-300
-288
-248
-207
-177
-157
-152
-147
-148
-138
-128
-109
-82
-58
-56
-83
-120
-144
-142
-131
-119
-116
-109
-94
-81
-77
-80
-76
-63
-48
-40
-26
-17
-25
-44
-44
-31
-27
-27
-16
-8
-15
-23
-27
-31
-30
-28
-20
-12
-9
-17
-20
-20
-19
-24
-29
-23
-15
-9
-5
0
0
-22
-24
-7
0
-16
-26
-28
-34
-42
-59
-90
-135
-172
-188
-205
-224
-246
-256
-260
-264
-248
-231
-202
-178
-144
-97
-47
4
54
99
118
104
85
54
-6
-82
-157
-209
-239
-246
-223
-191
-164
-148
-136
-126
-119
-120
-123
-124
-113
-94
-96
-119
-136
-129
-109
-106
-117
-112
-84
-62
-64
-91
-118
-115
-84
-54
-56
-73
-78
-64
-49
-46
-49
-60
-60
-56
-46
-42
-43
-42
-44
-45
-41
-36
-36
-40
-47
-45
-40
-37
-25
-13
-8
-14
-26
-25
-18
-22
-28
-14
6
16
14
5
0
14
36
36
15
-10
-30
-51
-70
-91
-113
-130
-143
-159
-181
-191
-177
-145
-113
-90
-61
-32
2
38
91
133
141
131
97
30
-44
-102
-153
-198
-217
-210
-188
-158
-128
-105
-94
-94
-106
-103
-92
-84
-88
-95
-90
-79
-67
-75
-88
-100
-101
-88
-70
-68
-72
-70
-59
-45
-39
-40
-36
-25
-20
-18
-11
1
13
13
12
10
12
15
19
19
19
16
13
17
25
30
27
21
16
10
8
13
19
16
13
7
3
7
12
32
49
62
66
48
24
12
30
43
44
25
-11
-51
-78
-96
-110
-128
-148
-177
-190
-196
-192
-176
-140
-97
-63
-31
10
55
106
140
141
133
118
92
30
-50
-125
-183
-196
-177
-157
-142
-129
-111
-103
-98
-96
-96
-96
-83
-56
-34
-35
-41
-35
-23
-24
-37
-39
-32
-25
-17
-9
-4
-3
5
18
28
27
23
24
34
41
36
33
33
34
38
44
50
44
47
48
49
47
46
47
43
44
48
52
54
55
54
58
58
52
52
52
62
68
80
87
86
77
72
83
91
89
72
51
19
-28
-75
-114
-143
-164
-181
-187
-196
-196
-183
-146
-97
-56
-27
-1
29
69
110
123
120
125
120
56
-37
-124
-173
-190
-185
-158
-134
-124
-121
-109
-96
-100
-121
-135
-127
-116
-108
-93
-72
-58
-56
-51
-42
-36
-40
-38
-24
-17
-15
-21
-19
-4
9
15
18
29
46
55
49
47
46
47
50
56
64
60
51
41
38
41
51
60
65
67
65
63
53
51
56
61
54
41
38
51
71
70
63
63
73
73
73
78
78
85
89
88
79
55
7
-54
-99
-131
-153
-161
-173
-193
-195
-168
-133
-98
-60
-24
3
32
64
93
123
123
122
126
103
38
-49
-112
-153
-178
-164
-137
-112
-90
-65
-52
-56
-63
-64
-54
-43
-42
-49
-50
-54
-57
-52
-43
-37
-37
-27
-9
-2
-11
-16
-13
-2
10
21
28
20
9
3
15
32
44
41
38
41
53
59
45
32
35
48
44
26
22
22
27
26
22
23
31
41
51
63
51
29
17
24
40
67
87
76
69
68
63
52
51
56
50
26
-23
-75
-107
-130
-152
-181
-191
-189
-187
-178
-163
-126
-83
-45
-15
8
42
100
172
221
223
207
159
89
24
-35
-89
-131
-132
-93
-54
-29
-15
-1
5
3
-10
-25
-44
-57
-51
-37
-36
-45
-42
-29
-18
-17
-15
-8
1
34
48
27
-1
0
18
20
22
31
44
46
44
46
55
62
61
63
60
63
63
58
43
26
22
24
32
34
35
35
38
47
49
45
36
33
31
38
53
62
56
41
35
33
41
55
73
84
84
66
26
-40
-114
-152
-168
-192
-213
-220
-213
-206
-188
-162
-132
-97
-70
-43
-8
39
87
134
149
139
128
108
51
-36
-120
-165
-180
-179
-166
-135
-111
-91
-82
-77
-76
-77
-75
-70
-65
-67
-68
-64
-57
-54
-50
-43
-43
-47
-46
-35
-31
-33
-25
-14
-1
6
5
-10
-25
-20
-5
13
20
14
7
12
14
8
-4
-7
-5
-8
-8
2
11
4
-1
-1
6
19
28
37
39
43
49
54
52
53
67
83
94
91
87
79
82
84
78
58
16
-36
-77
-114
-153
-193
-218
-228
-235
-242
-250
-238
-217
-186
-173
-166
-153
-118
-58
5
33
35
27
24
20
-12
-60
-119
-187
-229
-231
-205
-172
-151
-127
-107
-91
-90
-96
-96
-85
-74
-68
-68
-71
-75
-69
-55
-45
-40
-36
-29
-19
-18
-22
-21
-12
-9
-10
-13
-1
12
11
7
11
19
22
28
25
11
3
14
25
16
-2
-8
-1
4
4
4
12
12
-4
-16
-16
-10
-13
-18
-16
-14
-12
-14
-8
6
30
50
68
78
81
87
86
79
62
43
7
-49
-100
-136
-154
-170
-201
-224
-231
-219
-216
-208
-185
-160
-142
-126
-87
-33
28
82
118
127
104
52
-11
-86
-157
-223
-262
-268
-254
-232
-208
-186
-168
-153
-138
-135
-134
-127
-121
-120
-120
-111
-111
-119
-125
-118
-102
-91
-86
-85
-81
-77
-71
-65
-56
-44
-38
-44
-60
-63
-54
-42
-38
-38
-36
-40
-36
-31
-33
-38
-34
-30
-25
-24
-23
-25
-33
-42
-41
-32
-31
-36
-36
-34
-39
-45
-41
-36
-29
-28
-26
-24
-18
-17
-17
-10
0
3
-8
-35
-73
-120
-174
-212
-230
-241
-254
-269
-285
-307
-314
-285
-239
-213
-194
-162
-122
-110
-104
-80
-43
-26
-30
-34
-36
-53
-98
-168
-226
-250
-226
-194
-169
-157
-145
-130
-119
-110
-111
-106
-93
-73
-60
-55
-41
-26
-21
-28
-36
-35
-22
-10
-6
-9
-8
8
26
36
36
42
57
72
68
67
68
67
63
73
88
83
72
65
67
74
79
80
76
68
60
65
69
68
63
64
6