-65
-67
-61
-53
-49
-52
-52
-48
-41
-35
-28
-19
-15
-11
-9
-4
-6
-9
-8
-5
-5
-12
-23
-35
-38
-39
-48
-67
-88
-100
-111
-123
-128
-130
-129
-128
-124
-120
-120
-122
-125
-127
-125
-122
-129
-140
-144
-132
-100
-46
25
117
217
304
370
421
475
495
471
384
259
120
18
-46
-94
-138
-184
-239
-280
-307
-319
-339
-366
-389
-409
-410
-413
-413
-422
-429
-435
-449
-452
-459
-451
-456
-460
-472
-478
-481
-493
-498
-515
-512
-524
-534
-544
-551
-548
-554
-549
-553
-551
-562
-556
-539
-527
-512
-508
-500
-502
-491
-488
-488
-477
-466
-452
-451
-448
-449
-431
-409
-390
-384
-385
-383
-384
-374
-361
-352
-345
-346
-344
-351
-355
-361
-358
-353
-347
-350
-363
-360
-356
-345
-347
-352
-370
-379
-369
-368
-362
-364
-360
-372
-375
-362
-345
-330
-329
-322
-323
-313
-304
-290
-278
-276
-267
-259
-241
-232
-230
-228
-225
-214
-207
-202
-209
-209
-216
-228
-237
-235
-233
-244
-247
-247
-234
-227
-231
-238
-240
-233
-222
-205
-201
-205
-207
-200
-192
-176
-148
-102
-25
79
200
303
383
420
453
467
448
374
265
155
68
13
-21
-42
-69
-107
-137
-160
-172
-180
-194
-196
-199
-194
-193
-189
-189
-191
-183
-174
-160
-158
-158
-157
-157
-158
-162
-163
-167
-168
-171
-170
-170
-173
-172
-170
-169
-174
-174
-169
-164
-159
-155
-149
-139
-126
-120
-117
-112
-99
-82
-70
-63
-53
-40
-30
-21
-13
1
9
20
25
31
33
38
46
48
52
51
50
49
52
50
47
46
44
45
43
42
39
39
40
34
31
28
28
26
26
30
26
26
26
28
29
32
35
41
43
44
51
59
67
74
84
90
93
96
102
105
102
106
110
116
116
117
120
121
120
111
102
85
76
64
56
54
56
59
56
52
48
51
56
52
45
38
41
35
30
38
63
110
177
280
371
471
539
592
624
651
653
588
491
372
266
190
147
118
81
41
3
-24
-27
-18
-24
-58
-80
-81
-76
-72
-70
-69
-79
-88
-95
-96
-91
-84
-77
-73
-76
-88
-85
-78
-74
-69
-63
-61
-68
-66
-61
-53
-54
-59
-59
-49
-42
-40
-29
-20
-19
-16
-1
25
58
80
84
88
99
116
124
134
139
152
173
195
209
203
204
206
218
220
229
244
255
256
244
243
235
231
226
232
233
224
217
208
213
220
230
233
222
217
224
233
222
217
210
207
206
211
216
217
228
239
254
254
260
259
255
262
266
272
271
276
278
277
272
266
269
265
276
277
271
243
214
195
188
198
199
200
192
194
198
200
207
209
219
207
188
171
170
177
192
245
307
387
463
557
626
668
715
749
775
724
624
492
377
305
259
228
184
138
95
78
70
56
35
0
-31
-47
-32
-2
5
-19
-50
-70
-77
-78
-81
-88
-95
-106
-119
-138
-154
-165
-171
-167
-157
-149
-168
-215
-249
-249
-237
-232
-231
-239
-249
-247
-227
-220
-234
-243
-252
-262
-268
-261
-255
-252
-251
-256
-245
-227
-210
-200
-200
-204
-194
-170
-163
-181
-212
-218
-205
-186
-178
-192
-212
-220
-206
-198
-193
-200
-210
-215
-223
-226
-240
-255
-264
-259
-249
-254
-254
-252
-246
-261
-281
-287
-272
-256
-256
-252
-252
-249
-256
-253
-242
-232
-218
-202
-186
-178
-162
-149
-148
-161
-169
-169
-173
-178
-182
-185
-173
-148
-140
-164
-187
-204
-208
-206
-202
-216
-233
-235
-225
-209
-204
-213
-224
-224
-211
-208
-220
-253
-266
-249
-197
-117
-18
88
199
274
329
364
400
413
377
301
168
47
-24
-61
-94
-141
-187
-218
-238
-253
-278
-298
-307
-292
-278
-285
-304
-323
-318
-311
-305
-311
-316
-310
-305
-309
-329
-338
-340
-334
-336
-344
-346
-343
-340
-346
-347
-354
-358
-355
-350
-350
-354
-353
-351
-343
-336
-321
-317
-322
-322
-320
-304
-290
-271
-264
-259
-253
-248
-245
-251
-241
-221
-204
-197
-195
-195
-196
-188
-184
-175
-174
-168
-169
-175
-174
-167
-158
-169
-186
-197
-198
-198
-203
-200
-201
-197
-199
-203
-211
-212
-206
-198
-194
-201
-209
-215
-212
-197
-189
-192
-191
-186
-177
-160
-147
-139
-137
-139
-140
-141
-132
-113
-101
-109
-124
-131
-125
-114
-113
-128
-156
-176
-187
-187
-181
-178
-170
-166
-166
-178
-184
-179
-171
-168
-178
-182
-185
-191
-180
-144
-88
-14
84
205
303
372
413
452
480
455
394
270
134
37
-16
-47
-86
-130
-167
-192
-212
-236
-251
-263
-268
-260
-254
-254
-264
-269
-265
-252
-244
-250
-262
-268
-263
-262
-269
-276
-272
-272
-278
-281
-283
-284
-284
-279
-278
-286
-282
-268
-265
-283
-286
-273
-257
-248
-239
-228
-222
-211
-197
-181
-178
-171
-156
-138
-117
-98
-83
-78
-78
-74
-61
-41
-26
-14
-1
11
14
17
18
21
25
35
42
39
36
38
36
31
31
26
20
24
28
22
14
18
22
26
29
33
31
28
28
40
58
62
55
49
58
75
88
101
106
115
120
125
118
116
124
135
147
144
139
129
128
129
128
124
116
110
96
90
89
92
96
95
101
103
102
96
98
100
92
82
70
67
73
94
131
200
281
378
463
532
586
620
656
639
587
477
344
232
150
107
69
31
-19
-66
-110
-148
-174
-193
-209
-224
-237
-239
-250
-274
-288
-290
-289
-301
-321
-341
-353
-358
-359
-361
-368
-372
-384
-395
-406
-410
-419
-431
-436
-450
-450
-449
-442
-440
-444
-448
-453
-437
-425
-411
-410
-406
-404
-394
-372
-367
-368
-375
-356
-341
-328
-317
-302
-285
-282
-273
-266
-258
-259
-254
-246
-246
-243
-241
-237
-253
-267
-266
-265
-268
-281
-285
-282
-267
-265
-280
-301
-317
-328
-336
-331
-326
-322
-326
-332
-337
-339
-332
-327
-312
-301
-290
-282
-277
-276
-280
-289
-288
-264
-245
-241
-240
-230
-219
-224
-230
-235
-242
-259
-274
-280
-280
-272
-280
-290
-309
-320
-324
-326
-320
-319
-313
-311
-301
-305
-306
-306
-315
-318
-314
-280
-242
-176
-77
34
143
222
272
316
350
363
302
184
51
-66
-140
-189
-226
-260
-303
-347
-374
-393
-409
-432
-449
-463
-460
-453
-451
-452
-456
-456
-470
-474
-484
-491
-490
-480
-477
-501
-513
-518
-514
-518
-523
-528
-540
-538
-546
-537
-537
-536
-551
-559
-549
-545
-530
-531
-518
-510
-495
-487
-487
-473
-466
-444
-426
-399
-391
-390
-377
-355
-315
-286
-256
-248
-246
-256
-257
-249
-243
-239
-250
-269
-291
-297
-301
-308
-311
-325
-332
-337
-336
-349
-363
-365
-366
-368
-378
-386
-392
-393
-387
-382
-386
-396
-391
-385
-385
-398
-403
-401
-403
-400
-402
-398
-393
-367
-317
-244
-161
-57
49
153
222
275
314
310
256
133
-15
-132
-208
-250
-301
-348
-396
-437
-463
-495
-513
-543
-553
-565
-561
-545
-548
-555
-571
-564
-570
-567
-573
-584
-588
-592
-583
-591
-594
-611
-612
-611
-622
-630
-643
-635
-636
-628
-635
-637
-626
-621
-607
-600
-580
-573
-565
-556
-549
-537
-523
-502
-494
-484
-474
-448
-428
-426
-425
-415
-391
-384
-376
-365
-356
-350
-339
-326
-329
-325
-327
-329
-342
-341
-326
-324
-324
-326
-312
-319
-333
-339
-336
-332
-343
-339
-333
-323
-326
-337
-343
-344
-330
-321
-310
-320
-325
-322
-316
-314
-319
-313
-310
-305
-302
-294
-293
-298
-290
-278
-264
-263
-267
-266
-259
-265
-287
-288
-259
-226
-210
-190
-173
-165
-163
-162
-164
-164
-146
-120
-98
-99
-104
-98
-92
-92
-94
-98
-93
-75
-73
-98
-127
-144
-132
-95
-53
-47
-57
-64
-60
-50
-45
-32
0
62
144
220
297
396
490
585
642
683
672
578
426
256
170
131
96
38
-27
-64
-87
-109
-114
-111
-130
-175
-225
-239
-205
-168
-164
-175
-197
-216
-218
-206
-197
-188
-190
-214
-237
-256
-262
-252
-247
-258
-261
-243
-227
-229
-260
-287
-293
-279
-270
-278
-277
-273
-269
-262
-237
-219
-228
-226
-206
-181
-176
-162
-134
-107
-89
-94
-112
-111
-77
-41
-9
12
19
3
-20
-26
0
43
59
39
16
15
24
17
-15
-35
-12
33
61
40
-2
-26
-26
-19
-5
3
3
0
-3
10
29
44
42
25
11
-2
0
22
48
46
38
46
73
108
134
155
137
103
93
132
182
184
170
159
173
192
202
184
136
90
73
97
118
121
115
124
154
193
210
177
143
119
93
71
89
147
194
213
194
168
208
353
527
665
719
715
734
791
844
809
728
605
483
380
289
246
243
271
277
242
172
124
104
70
56
102
175
207
200
182
160
158
159
132
77
68
127
194
210
170
125
98
112
143
162
151
108
78
86
132
167
186
178
153
154
179
200
186
197
246
296
285
240
236
273
303
279
266
304
382
435
435
406
370
375
396
438
463
442
394
392
454
473
446
421
437
460
468
459
431
411
389
398
414
430
444
462
465
416
359
336
374
410
418
402
381
393
412
428
416
396
391
432
481
479
482
493
514
520
509
486
465
484
491
508
513
523
528
536
523
465
434
444
483
483
481
495
516
512
453
406
400
459
503
515
501
486
471
436
446
497
572
614
635
674
769
907
990
1034
1071
1135
1155
1097
961
792
686
624
600
537
476
454
464
468
435
392
344
335
365
397
409
395
383
356
332
316
330
355
368
372
359
368
395
444
451
382
271
224
288
358
386
321
240
240
320
399
411
378
330
333
351
372
400
424
442
439
434
407
411
424
424
413
424
469
508
534
524
520
496
479
485
491
499
494
515
543
563
543
499
484
504
539
529
480
402
383
431
462
454
451
476
450
388
365
433
541
557
462
331
304
371
457
503
531
558
517
467
448
482
529
567
535
463
445
455
486
527
599
608
528
452
458
515
509
487
475
471
459
466
525
554
524
442
398
387
405
444
489
514
483
464
446
437
439
500
603
648
649
682
815
981
1095
1137
1141
1100
993
891
792
727
642
532
428
420
484
468
337
187
152
206
257
272
266
284
293
289
253
216
216
258
316
296
218
159
179
218
240
258
268
252
185
128
127
156
169
160
135
95
87
124
179
188
147
116
126
164
200
224
240
271
291
292
271
232
218
250
302
304
278
256
261
264
262
286
314
312
269
242
250
288
319
295
270
281
328
322
228
129
116
162
188
202
198
183
164
147
119
100
138
206
254
225
184
232
323
296
87
-73
-31
110
224
271
246
189
158
157
196
251
293
269
198
152
152
183
184
154
131
156
199
229
222
152
96
94
138
197
221
158
72
66
114
153
133
106
120
141
128
133
225
375
541
620
561
482
527
654
732
759
710
595
430
310
270
270
205
32
-121
-135
-64
-2
23
-1
-42
-39
-20
-34
-68
-106
-124
-98
-47
-38
-82
-110
-73
2
2
-89
-181
-202
-184
-169
-141
-117
-117
-142
-155
-138
-120
-115
-110
-102
-113
-129
-143
-137
-104
-87
-95
-104
-98
-79
-35
31
64
8
-74
-110
-89
-42
4
28
28
14
-12
-31
-24
0
27
40
34
16
11
25
56
73
49
-17
-68
-52
-15
-14
-27
-27
-20
-28
-31
-37
-54
-87
-114
-110
-79
-56
-56
-60
-57
-53
-48
-37
-23
-21
-26
-29
-21
-8
0
1
1
-3
-16
-17
-10
-19
-37
-36
-32
-43
-55
-64
-75
-87
-87
-78
-81
-92
-97
-88
-72
-64
-64
-63
-54
-57
-74
-78
-61
-41
-3
78
193
323
440
537
599
663
704
703
625
496
331
187
75
2
-42
-72
-108
-141
-174
-211
-235
-234
-240
-264
-274
-277
-274
-284
-294
-290
-284
-277
-282
-290
-308
-313
-313
-319
-327
-336
-327
-330
-335
-348
-352
-357
-360
-351
-354
-356
-363
-348
-339
-328
-318
-324
-322
-306
-275
-270
-266
-248
-218
-196
-205
-220
-209
-169
-148
-147
-141
-132
-128
-119
-106
-95
-84
-81
-81
-80
-77
-75
-73
-73
-81
-91
-90
-88
-96
-98
-98
-104
-113
-119
-113
-122
-136
-140
-137
-137
-155
-162
-151
-140
-145
-149
-143
-133
-121
-112
-113
-115
-104
-90
-86
-83
-84
-84
-87
-77
-64
-57
-60
-60
-54
-55
-65
-79
-84
-90
-103
-113
-115
-110
-119
-129
-125
-115
-113
-114
-114
-111
-109
-113
-125
-133
-128
-110
-77
-27
58
183
319
460
563
657
722
774
752
652
478
288
126
23
-48
-120
-184
-209
-229
-246
-258
-269
-287
-315
-321
-313
-291
-292
-307
-320
-330
-327
-330
-326
-334
-345
-357
-356
-344
-343
-330
-329
-351
-385
-373
-350
-353
-360
-371
-382
-390
-384
-397
-415
-409
-393
-380
-381
-369
-365
-348
-333
-318
-306
-300
-292
-290
-282
-280
-290
-301
-289
-261
-243
-228
-215
-202
-198
-193
-202
-208
-199
-186
-174
-175
-185
-188
-175
-161
-170
-196
-217
-223
-240
-237
-219
-217
-224
-228
-210
-199
-195
-210
-215
-213
-220
-225
-223
-201
-189
-183
-185
-182
-170
-165
-153
-143
-125
-109
-99
-96
-93
-83
-70
-69
-81
-93
-93
-93
-101
-113
-120
-119
-117
-121
-120
-122
-127
-130
-126
-117
-109
-108
-114
-112
-97
-83
-98
-131
-136
-102
-45
35
145
250
372
464
546
597
649
663
609
486
304
133
30
-21
-66
-128
-180
-213
-225
-232
-241
-239
-248
-250
-261
-270
-271
-267
-257
-260
-260
-271
-266
-249
-242
-252
-274
-281
-282
-274
-272
-272
-285
-299
-305
-304
-301
-303
-300
-296
-291
-285
-281
-274
-269
-260
-252
-241
-228
-211
-195
-183
-178
-179
-173
-158
-140
-123
-105
-88
-81
-85
-89
-77
-59
-44
-40
-30
-22
-13
-15
-21
-31
-36
-18
-4
-4
-19
-35
-43
-44
-40
-36
-34
-40
-45
-42
-34
-34
-44
-49
-48
-44
-40
-36
-26
-20
-17
-8
3
10
12
16
27
40
49
50
50
56
66
78
85
87
80
77
83
89
86
62
44
35
33
31
34
39
32
32
33
40
45
44
41
42
44
45
47
44
48
68
126
220
331
474
594
708
777
851
906
892
809
648
476
324
220
149
92
45
3
-23
-39
-56
-76
-97
-113
-127
-131
-124
-118
-113
-115
-116
-122
-124
-131
-141
-142
-143
-144
-156
-169
-183
-187
-186
-183
-182
-185
-188
-193
-189
-185
-184
-183
-185
-178
-165
-152
-145
-134
-115
-93
-90
-93
-83
-58
-33
-22
-8
4
14
12
16
25
38
52
70
84
85
93
98
105
104
109
118
116
117
115
115
106
100
109
116
114
100
87
71
63
60
62
64
65
66
61
59
55
57
63
70
77
86
99
115
130
131
129
128
134
143
151
156
155
163
172
190
192
176
158
155
160
146
131
119
115
110
112
114
103
105
109
114
113
113
116
116
121
113
99
83
84
105
156
237
335
464
586
726
820
915
984
1005
969
833
651
446
304
236
180
129
71
12
-28
-32
-27
-37
-55
-70
-71
-70
-68
-76
-80
-78
-74
-82
-97
-105
-104
-104
-109
-114
-116
-118
-119
-122
-126
-135
-142
-141
-138
-133
-131
-128
-129
-131
-129
-125
-114
-108
-98
-83
-66
-61
-58
-58
-53
-43
-28
-10
4
19
24
33
47
60
61
60
72
85
95
90
88
90
99
104
102
96
87
83
77
81
84
79
75
67
59
48
39
35
36
38
37
38
34
37
42
54
58
60
57
56
58
67
85
99
107
108
109
112
120
135
132
129
126
134
145
155
156
141
128
126
135
132
113
94
84
85
88
95
98
102
91
71
66
75
94
101
105
99
92
92
99
120
156
229
326
450
558
677
761
836
896
896
849
712
558
399
276
202
145
99
52
25
10
0
-9
-29
-52
-68
-69
-63
-58
-58
-65
-75
-75
-64
-54
-50
-53
-58
-66
-78
-84
-84
-80
-78
-73
-73
-74
-73
-77
-89
-95
-81
-69
-66
-65
-62
-52
-44
-41
-33
-10
9
17
16
20
36
48
58
60
67
78
98
114
115
123
136
147
153
162
160
162
170
177
178
171
172
171
176
175
176
176
175
178
175
175
164
158
155
156
162
159
146
131
138
142
140
134
136
139
138
142
148
163
170
177
185
188
190
187
203
212
221
224
226
230
228
236
230
230
227
229
227
220
217
211
210
202
200
195
201
212
215
219
216
222
220
222
225
226
222
211
218
253
329
419
540
664
794
904
988
1065
1066
1011
850
665
489
347
274
217
168
111
70
49
35
15
-7
-19
-32
-37
-43
-46
-48
-51
-57
-69
-78
-83
-84
-84
-90
-97
-103
-103
-105
-109
-109
-115
-124
-128
-125
-126
-128
-129
-126
-122
-125
-121
-109
-92
-83
-78
-72
-61
-51
-42
-29
-15
1
10
21
31
42
54
67
82
91
108
121
125
128
139
146
146
146
145
152
159
167
161
158
152
151
150
145
143
131
122
121
123
117
106
101
96
98
101
101
96
99
112
114
114
110
113
123
136
145
152
162
167
178
186
195
189
182
190
198
203
194
193
190
187
186
175
168
151
138
122
113
111
118
126
129
128
113
108
109
121
128
127
121
109
106
117
154
221
324
446
589
727
839
932
995
1051
1012
892
703
511
370
255
173
101
57
20
-7
-32
-56
-73
-90
-106
-120
-123
-126
-129
-130
-130
-135
-152
-168
-168
-161
-158
-167
-177
-180
-182
-181
-184
-187
-197
-208
-216
-222
-217
-210
-208
-217
-220
-220
-211
-197
-187
-174
-162
-149
-144
-134
-123
-116
-105
-91
-74
-63
-51
-38
-16
14
47
75
99
112
114
110
102
99
99
100
93
84
62
42
27
21
19
11
-5
-28
-42
-49
-49
-49
-51
-64
-86
-99
-94
-83
-74
-74
-80
-92
-94
-86
-76
-69
-60
-51
-61
-72
-78
-76
-66
-40
2
79
182
300
444
562
671
730
784
797
736
614
423
243
103
17
-24
-60
-101
-150
-181
-190
-189
-194
-213
-230
-238
-234
-236
-247
-248
-248
-244
-248
-246
-242
-240
-241
-252
-263
-274
-278
-280
-280
-279
-276
-272
-274
-274
-280
-282
-283
-279
-266
-255
-246
-246
-238
-226
-212
-200
-181
-165
-148
-130
-117
-112
-108
-95
-84
-72
-65
-49
-32
-19
-7
-2
-2
1
11
14
6
-5
-5
3
11
16
2
-14
-17
-12
-5
-6
-5
-7
-11
-16
-11
-8
-12
-12
-2
3
0
-4
-10
-15
-9
2
10
11
10
13
20
22
24
20
17
18
21
19
14
19
24
30
35
33
36
41
48
46
54
66
77
79
76
77
77
89
95
96
94
92
93
86
81
64
49
40
39
40
35
36
35
34
31
30
29
26
26
37
46
36
24
24
46
94
169
274
403
537
659
755
816
875
868
795
656
480
323
189
116
62
17
-31
-75
-105
-125
-143
-169
-194
-204
-201
-194
-195
-204
-214
-211
-204
-208
-217
-226
-232
-235
-237
-237
-239
-234
-240
-253
-259
-258
-255
-256
-256
-264
-262
-255
-249
-256
-264
-261
-257
-245
-232
-213
-208
-202
-194
-190
-173
-149
-126
-122
-123
-111
-86
-68
-61
-47
-25
-13
-20
-21
-5
12
17
19
26
35
35
34
35
37
38
35
33
28
23
6
-11
-14
-15
-23
-32
-34
-38
-42
-45
-50
-49
-50
-47
-44
-38
-35
-39
-34
-34
-28
-18
-1
13
26
33
39
46
48
44
34
38
53
74
83
68
52
47
54
55
41
19
-7
-13
-13
-16
-23
-30
-32
-34
-29
-30
-32
-30
-26
-29
-32
-35
-41
-36
-11
52
156
287
431
570
684
777
856
908
893
781
630
436
279
153
69
9
-43
-93
-130
-148
-159
-175
-190
-195
-200
-208
-221
-221
-221
-224
-228
-232
-239
-243
-246
-260
-267
-265
-255
-263
-278
-290
-303
-305
-312
-312
-317
-317
-317
-316
-309
-314
-314
-321
-312
-302
-290
-279
-269
-251
-244
-238
-240
-229
-215
-202
-186
-174
-165
-159
-141
-123
-111
-105
-98
-89
-81
-76
-71
-63
-64
-69
-69
-71
-74
-79
-83
-85
-85
-89
-95
-109
-124
-133
-136
-133
-137
-151
-164
-177
-179
-176
-170
-170
-174
-179
-177
-177
-178
-174
-166
-156
-151
-145
-143
-135
-128
-124
-114
-104
-99
-100
-95
-87
-84
-90
-98
-98
-96
-95
-110
-129
-148
-155
-150
-146
-146
-154
-158
-162
-168
-168
-168
-166
-170
-173
-180
-186
-190
-176
-143
-95
-25
76
217
358
479
565
640
681
678
594
453
272
116
4
-69
-120
-165
-216
-254
-267
-269
-281
-299
-310
-320
-312
-307
-301
-305
-310
-308
-308
-309
-318
-316
-315
-314
-330
-338
-330
-328
-331
-347
-344
-346
-341
-342
-343
-340
-346
-332
-324
-315
-317
-315
-313
-306
-289
-281
-271
-268
-253
-233
-219
-210
-205
-189
-177
-166
-157
-140
-128
-123
-121
-118
-113
-100
-84
-76
-74
-77
-86
-95
-96
-87
-84
-88
-99
-100
-108
-111
-114
-116
-116
-116
-117
-128
-134
-138
-144
-147
-149
-148
-143
-134
-130
-133
-131
-124
-110
-100
-94
-94
-90
-83
-75
-61
-49
-40
-35
-25
-7
3
-7
-24
-24
-16
-12
-17
-24
-36
-47
-54
-56
-53
-51
-52
-52
-50
-49
-45
-45
-47
-48
-45
-44
-56
-64
-61
-27
33
118
227
351
487
595
686
740
782
763
675
521
350
201
98
33
-12
-52
-93
-122
-132
-143
-152
-161
-180
-191
-189
-178
-176
-177
-185
-188
-186
-189
-190
-195
-199
-205
-202
-197
-206
-217
-228
-230
-239
-245
-244
-244
-242
-246
-245
-250
-242
-241
-236
-230
-222
-214
-212
-201
-189
-176
-166
-156
-142
-136
-132
-121
-103
-89
-77
-65
-50
-41
-28
-21
-13
-7
0
11
17
16
12
14
19
21
17
16
15
10
12
10
4
-7
-10
-6
-14
-21
-26
-30
-36
-42
-36
-34
-34
-38
-39
-32
-22
-20
-23
-26
-25
-11
3
13
17
23
26
27
34
41
42
38
45
56
64
62
57
51
45
44
35
24
7
-4
-9
-10
-8
-9
-4
-3
-9
-24
-31
-29
-25
-16
-17
-27
-44
-46
-31
3
66
156
287
414
555
658
747
817
852
820
694
523
344
193
80
-5
-64
-108
-143
-167
-186
-198
-218
-227
-242
-250
-250
-253
-246
-252
-255
-262
-257
-258
-262
-261
-261
-259
-272
-278
-288
-288
-290
-301
-311
-323
-323
-328
-327
-329
-327
-326
-326
-319
-307
-296
-291
-281
-276
-272
-261
-252
-238
-229
-215
-206
-192
-178
-164
-152
-140
-127
-117
-111
-106
-93
-83
-72
-65
-65
-66
-61
-51
-56
-64
-71
-71
-74
-81
-88
-93
-98
-110
-116
-119
-123
-125
-128
-127
-138
-146
-147
-144
-141
-141
-140
-149
-150
-142
-128
-112
-103
-95
-91
-85
-80
-72
-66
-58
-54
-58
-61
-57
-48
-45
-48
-58
-65
-69
-70
-80
-99
-117
-129
-136
-138
-136
-138
-141
-142
-149
-156
-154
-148
-142
-146
-157
-179
-193
-191
-166
-126
-56
33
153
278
408
506
584
660
688
661
528
339
155
14
-72
-138
-193
-241
-287
-306
-316
-318
-332
-343
-354
-364
-356
-352
-347
-356
-360
-368
-374
-372
-376
-376
-381
-378
-381
-382
-388
-396
-396
-401
-399
-405
-402
-404
-409
-416
-423
-421
-420
-416
-417
-407
-388
-364
-348
-345
-340
-335
-322
-318
-309
-288
-268
-263
-263
-254
-244
-236
-225
-208
-196
-186
-179
-178
-177
-180
-180
-183
-177
-163
-160
-160
-167
-175
-182
-181
-185
-193
-196
-198
-199
-208
-212
-209
-205
-204
-207
-208
-210
-208
-208
-204
-201
-200
-199
-194
-180
-169
-159
-152
-148
-144
-133
-118
-114
-115
-113
-101
-90
-91
-99
-111
-118
-112
-111
-120
-134
-140
-136
-138
-147
-157
-166
-165
-164
-161
-160
-155
-149
-146
-144
-150
-157
-153
-134
-104
-53
24
136
255
384
475
536
589
614
607
503
342
163
19
-56
-105
-144
-178
-216
-234
-249
-255
-265
-277
-289
-296
-288
-281
-279
-290
-290
-287
-283
-281
-284
-284
-288
-286
-287
-287
-289
-294
-295
-301
-301
-304
-297
-295
-294
-292
-289
-291
-298
-291
-280
-272
-269
-257
-246
-243
-235
-224
-207
-193
-177
-168
-159
-146
-133
-116
-100
-88
-78
-70
-66
-50
-36
-27
-26
-28
-27
-22
-15
-13
-18
-24
-27
-26
-28
-30
-35
-37
-38
-41
-47
-56
-62
-64
-66
-70
-77
-78
-75
-69
-72
-72
-69
-64
-62
-62
-63
-61
-52
-41
-31
-25
-18
-13
-7
1
12
16
11
13
19
31
39
43
34
27
25
25
21
2
-18
-28
-28
-32
-38
-33
-37
-34
-31
-29
-33
-42
-49
-51
-53
-61
-68
-66
-44
7
96
209
354
500
622
717
776
845
834
739
575
364
193
68
5
-37
-77
-126
-167
-186
-197
-215
-234
-252
-253
-248
-242
-249
-262
-270
-270
-266
-266
-268
-273
-285
-296
-300
-299
-300
-303
-318
-333
-343
-343
-345
-348
-343
-343
-340
-341
-340
-337
-337
-332
-323
-307
-298
-285
-270
-248
-238
-231
-221
-215
-204
-185
-162
-155
-147
-132
-115
-107
-104
-98
-88
-79
-72
-66
-60
-53
-51
-54
-53
-54
-56
-63
-70
-72
-72
-74
-79
-88
-100
-104
-103
-100
-102
-110
-118
-125
-123
-119
-114
-114
-112
-104
-98
-94
-91
-81
-67
-54
-49
-43
-42
-40
-34
-27
-22
-20
-13
-5
0
-3
-8
-11
-9
-18
-42
-61
-68
-73
-75
-74
-74
-82
-83
-79
-76
-76
-76
-71
-76
-82
-89
-100
-102
-91
-60
-2
84
209
348
489
604
669
744
791
793
692
505
307
117
-3
-85
-148
-197
-237
-260
-272
-287
-304
-323
-327
-332
-328
-327
-332
-338
-347
-344
-350
-352
-356
-360
-360
-368
-372
-378
-371
-373
-375
-382
-392
-405
-407
-397
-400
-402
-405
-400
-399
-398
-392
-386
-372
-368
-355
-341
-329
-324
-317
-300
-292
-284
-277
-262
-258
-249
-227
-212
-199
-195
-185
-180
-174
-176
-175
-167
-160
-155
-150
-140
-140
-148
-158
-162
-160
-164
-172
-181
-184
-187
-192
-193
-198
-209
-218
-208
-198
-194
-196
-200
-200
-200
-198
-195
-184
-175
-168
-161
-162
-160
-150
-136
-123
-110
-101
-95
-98
-94
-90
-88
-89
-90
-85
-87
-92
-101
-112
-114
-116
-120
-122
-124
-127
-129
-133
-139
-140
-138
-131
-132
-132
-137
-148
-156
-151
-124
-88
-25
60
159
286
416
511
583
632
669
639
536
377
180
46
-36
-85
-127
-160
-193
-221
-241
-253
-261
-271
-284
-284
-280
-272
-272
-275
-273
-273
-273
-276
-276
-272
-274
-278
-290
-293
-290
-285
-288
-296
-301
-303
-298
-303
-302
-297
-288
-290
-290
-284
-280
-268
-259
-248
-241
-231
-217
-208
-199
-196
-186
-170
-152
-139
-128
-113
-100
-83
-70
-57
-51
-41
-32
-19
-11
-7
-1
7
11
8
5
2
-2
-5
-4
-7
-13
-18
-16
-18
-25
-37
-45
-39
-35
-39
-47
-46
-41
-49
-50
-42
-34
-31
-29
-23
-15
-8
-5
-2
3
15
28
34
37
41
48
49
51
56
67
77
74
70
60
56
53
44
27
9
1
-5
-5
-3
-5
-7
-5
0
-3
-7
-8
-8
-14
-20
-24
-27
-22
6
59
143
260
403
545
648
725
783
826
816
714
561
356
198
83
16
-33
-77
-128
-166
-184
-192
-200
-211
-224
-232
-239
-239
-236
-240
-245
-246
-244
-252
-259
-258
-260
-260
-267
-271
-273
-282
-294
-306
-303
-306
-309
-317
-317
-318
-316
-314
-320
-317
-312
-294
-286
-277
-268
-261
-245
-234
-222
-216
-203
-191
-181
-163
-143
-120
-106
-104
-108
-101
-81
-61
-50
-50
-52
-48
-39
-33
-29
-22
-16
-24
-33
-35
-34
-38
-44
-48
-52
-56
-64
-69
-72
-75
-84
-89
-88
-90
-92
-92
-87
-86
-81
-73
-74
-76
-73
-60
-48
-39
-29
-20
-14
-15
-10
-8
-10
-9
0
11
12
12
7
4
4
2
-5
-20
-25
-32
-41
-41
-44
-42
-43
-41
-37
-38
-40
-44
-49
-48
-45
-51
-62
-62
-47
-12
45
135
252
392
525
632
712
785
826
803
677
508
306
150
47
-22
-76
-125
-174
-206
-221
-231
-246
-267
-281
-287
-286
-287
-287
-291
-298
-303
-304
-300
-304
-303
-312
-320
-334
-337
-333
-335
-336
-344
-346
-357
-368
-374
-376
-372
-374
-362
-361
-359
-366
-360
-346
-338
-327
-330
-322
-314
-296
-277
-267
-265
-267
-257
-244
-224
-208
-193
-178
-170
-164
-162
-152
-146
-138
-131
-125
-124
-121
-120
-119
-118
-121
-123
-123
-123
-130
-136
-138
-147
-154
-158
-158
-160
-164
-166
-167
-160
-162
-166
-164
-159
-161
-163
-159
-159
-155
-144
-123
-114
-107
-102
-97
-97
-89
-75
-70
-70
-68
-59
-54
-51
-50
-46
-42
-45
-49
-58
-76
-96
-113
-111
-104
-98
-106
-118
-122
-121
-110
-101
-97
-101
-104
-112
-119
-124
-123
-107
-78
-25
53
158
275
404
500
574
628
669
649
559
402
223
80
-7
-51
-83
-121
-163
-193
-209
-214
-224
-229
-237
-243
-243
-237
-232
-233
-234
-235
-229
-226
-222
-228
-233
-237
-240
-233
-234
-241
-252
-248
-245
-248
-249
-255
-254
-257
-257
-260
-258
-249
-242
-230
-225
-215
-205
-191
-177
-167
-156
-149
-143
-138
-130
-114
-90
-72
-62
-55
-41
-25
-13
-4
3
10
16
24
27
27
31
41
44
40
33
22
28
35
35
29
24
23
12
10
9
5
-4
-5
-1
4
5
-1
-4
-4
-1
-4
-1
12
20
30
40
46
50
62
79
88
94
99
105
102
102
106
121
127
123
121
118
113
105
101
91
81
69
58
56
58
64
61
59
59
57
52
48
47
46
48
48
44
30
22
39
90
183
294
424
551
665
758
833
893
866
762
599
416
255
156
93
37
-10
-51
-86
-104
-114
-125
-141
-151
-157
-165
-165
-164
-169
-177
-175
-174
-176
-177
-183
-182
-187
-182
-183
-185
-194
-213
-222
-229
-228
-232
-229
-229
-230
-228
-227
-221
-217
-214
-211
-199
-187
-176
-163
-155
-148
-138
-123
-106
-92
-81
-69
-62
-51
-38
-26
-19
-12
3
16
25
27
35
41
43
44
50
59
59
58
49
40
34
39
42
36
35
28
19
8
0
2
0
3
0
-4
-10
-6
-4
-1
6
6
8
9
16
27
39
47
52
58
57
61
67
77
81
82
82
87
94
96
92
85
89
94
95
80
58
42
31
27
24
29
32
35
35
37
43
42
40
33
31
33
29
20
12
34
74
147
243
356
487
604
714
790
871
902
873
764
599
421
268
168
105
52
0
-58
-94
-109
-113
-122
-140
-157
-170
-172
-170
-171
-179
-186
-188
-194
-195
-202
-205
-215
-221
-226
-235
-237
-244
-241
-247
-252
-256
-258
-259
-269
-270
-271
-260
-256
-245
-238
-233
-226
-213
-196
-191
-192
-194
-189
-175
-155
-138
-131
-127
-121
-105
-90
-72
-64
-52
-45
-39
-34
-29
-23
-16
-9
-4
0
1
2
6
0
-6
-12
-16
-23
-32
-38
-38
-33
-38
-44
-52
-61
-63
-61
-60
-63
-65
-61
-53
-44
-45
-49
-51
-42
-28
-10
4
7
2
1
18
38
53
53
48
44
48
55
62
68
74
73
61
44
30
25
18
12
4
4
6
9
14
5
-2
0
7
7
-1
-5
-14
-15
-7
14
40
83
156
253
389
502
602
655
711
746
736
664
514
346
200
102
50
14
-18
-62
-93
-101
-102
-104
-112
-117
-130
-137
-137
-134
-128
-126
-126
-131
-131
-131
-130
-132
-134
-130
-130
-138
-148
-144
-144
-151
-154
-157
-160
-166
-163
-158
-151
-144
-135
-130
-125
-120
-116
-111
-104
-87
-71
-62
-56
-44
-29
-18
-5
5
24
36
50
57
67
78
90
103
107
118
121
128
132
136
136
130
123
118
127
134
134
122
117
116
116
118
109
99
89
89
92
92
93
94
96
97
104
102
103
103
113
123
127
134
137
146
152
163
173
186
196
194
196
196
202
200
198
195
191
194
190
187
173
163
153
143
133
128
132
129
127
120
123
129
136
139
134
128
113
103
97
109
142
194
286
388
522
638
752
828
904
971
956
869
696
506
340
230
168
116
74
26
-7
-21
-33
-45
-66
-78
-89
-96
-94
-93
-94
-104
-107
-108
-107
-111
-121
-125
-125
-122
-125
-131
-136
-140
-143
-144
-144
-147
-150
-156
-158
-156
-151
-154
-153
-145
-136
-126
-117
-104
-93
-83
-73
-62
-50
-38
-24
-14
-1
11
26
37
45
53
69
88
92
96
99
110
120
130
135
131
131
130
128
122
125
126
127
121
113
113
107
106
96
91
83
79
79
80
82
78
74
73
73
71
73
80
88
97
106
121
127
128
131
134
141
151
162
162
166
166
170
171
168
172
169
172
166
163
154
140
125
107
104
103
109
109
108
109
115
125
125
121
110
108
104
98
92
95
120
161
239
334
467
600
723
823
890
967
983
944
802
618
446
302
214
146
92
33
-12
-38
-53
-65
-84
-99
-110
-123
-126
-130
-128
-130
-134
-136
-136
-138
-144
-147
-149
-149
-153
-161
-160
-159
-162
-167
-167
-168
-172
-177
-178
-178
-174
-171
-175
-178
-172
-153
-141
-132
-128
-125
-123
-142
-177
-156
-91
-15
-25
-73
-86
-49
-25
-14
4
38
41
32
26
51
71
68
64
64
68
61
57
58
55
51
46
45
45
44
36
24
14
5
1
-2
-3
-4
-4
3
9
6
1
7
17
28
32
35
37
44
52
61
69
76
85
94
106
115
118
125
133
137
134
136
132
132
130
122
109
91
84
82
83
84
91
97
92
96
97
104
106
107
104
105
105
100
104
117
151
203
292
396
515
634
722
797
840
889
874
787
634
440
294
199
153
112
67
15
-24
-40
-49
-63
-86
-101
-105
-108
-113
-114
-112
-112
-113
-113
-117
-122
-127
-134
-136
-134
-136
-140
-143
-149
-149
-154
-158
-159
-160
-158
-156
-158
-159
-156
-153
-149
-146
-135
-119
-106
-95
-88
-76
-66
-47
-30
-14
-2
14
30
41
56
68
83
92
110
123
136
141
142
147
147
151
150
155
159
161
155
144
139
139
140
131
122
112
107
105
102
101
95
88
79
75
77
80
87
92
96
96
104
112
120
126
131
137
138
150
160
167
167
175
189
193
200
200
208
206
210
207
201
195
186
185
170
153
139
138
141
134
134
130
130
124
125
131
134
138
137
137
128
121
115
134
172
240
329
438
574
699
822
910
1007
1068
1052
950
756
579
407
298
223
165
111
56
17
-8
-21
-35
-53
-70
-87
-101
-105
-104
-107
-114
-120
-122
-130
-135
-143
-149
-148
-144
-154
-170
-180
-176
-178
-183
-189
-195
-197
-204
-215
-222
-222
-215
-212
-208
-205
-192
-183
-177
-174
-161
-141
-131
-127
-118
-96
-78
-63
-44
-25
-17
-9
12
45
76
99
120
137
149
146
148
151
153
151
142
133
118
110
96
87
76
69
64
55
46
38
33
27
18
5
-1
-1
-3
-4
-3
4
7
4
3
11
23
24
20
17
23
27
27
31
28
41
71
137
218
324
452
589
724
813
907
954
931
782
548
321
160
71
12
-47
-96
-128
-137
-151
-168
-185
-199
-200
-202
-203
-220
-232
-240
-245
-245
-250
-250
-256
-261
-269
-271
-276
-287
-295
-304
-306
-315
-316
-316
-312
-304
-305
-309
-312
-300
-288
-269
-254
-242
-238
-233
-216
-201
-188
-176
-164
-152
-143
-132
-116
-100
-88
-78
-71
-63
-57
-46
-41
-33
-27
-26
-30
-34
-32
-31
-32
-31
-28
-30
-36
-49
-63
-66
-63
-62
-65
-66
-69
-72
-72
-77
-84
-82
-75
-69
-73
-73
-68
-64
-63
-65
-61
-64
-72
-77
-66
-55
-48
-43
-39
-34
-27
-21
-37
-49
-35
-11
-4
3
20
35
44
47
54
54
58
61
74
90
94
93
92
94
82
76
76
70
56
45
40
29
23
21
24
23
23
24
20
24
29
41
44
36
23
19
35
67
125
219
347
464
592
676
731
779
794
768
653
502
331
194
120
74
35
-10
-52
-86
-109
-118
-130
-143
-159
-169
-169
-166
-162
-158
-152
-152
-150
-143
-139
-143
-147
-145
-147
-150
-153
-151
-154
-160
-161
-166
-170
-169
-166
-167
-172
-174
-173
-162
-154
-151
-147
-136
-123
-118
-112
-103
-92
-80
-64
-48
-32
-20
-10
2
17
34
44
57
67
80
88
99
110
128
141
141
141
140
147
146
145
146
148
149
143
141
137
136
129
121
119
122
120
111
109
108
110
109
112
113
116
115
115
121
127
134
140
143
148
159
176
183
190
184
184
193
207
216
211
215
216
222
224
226
220
214
216
210
203
187
179
167
163
161
155
154
152
155
152
151
152
148
150
147
148
143
148
156
179
218
289
383
493
618
726
842
924
1001
1020
959
829
643
486
352
281
228
178
126
84
64
50
40
23
7
-6
-9
-5
-6
-17
-31
-40
-41
-45
-51
-53
-54
-61
-66
-70
-74
-78
-79
-79
-90
-100
-104
-108
-109
-116
-118
-120
-117
-112
-104
-98
-107
-143
-197
-218
-178
-106
-28
79
138
132
110
114
122
99
103
202
283
255
211
223
245
249
247
258
251
250
250
261
264
262
259
263
297
318
295
247
226
224
219
221
206
195
184
180
171
162
159
156
158
152
147
142
139
138
142
149
148
156
161
166
164
167
175
171
165
152
146
147
151
154
142
126
167
252
263
210
167
156
155
150
144
126
112
105
108
108
101
96
92
87
74
64
55
50
53
69
110
175
256
357
480
596
695
760
816
847
794
673
476
312
190
115
60
14
-32
-78
-103
-115
-127
-147
-165
-173
-178
-182
-179
-184
-189
-193
-192
-190
-188
-186
-190
-192
-196
-204
-211
-213
-217
-227
-231
-236
-239
-245
-242
-238
-228
-219
-215
-204
-196
-188
-193
-192
-183
-165
-147
-143
-137
-129
-120
-113
-103
-88
-74
-59
-50
-44
-46
-44
-38
-25
-10
-1
-3
-2
3
17
24
24
26
29
28
19
11
13
16
16
10
3
-8
-13
-16
-12
0
10
14
7
2
-7
-14
-12
-1
11
17
27
36
38
32
36
50
65
68
64
71
73
78
83
95
105
101
96
82
74
63
56
57
56
58
48
36
35
42
41
38
39
44
47
47
53
58
62
49
20
11
47
117
189
263
351
453
532
600
657
700
700
630
506
332
213
134
79
31
4
-10
-35
-61
-84
-100
-113
-114
-108
-104
-96
-102
-121
-127
-118
-99
-93
-91
-100
-106
-94
-77
-82
-112
-140
-141
-124
-106
-112
-135
-153
-147
-128
-122
-127
-127
-110
-86
-72
-86
-106
-103
-75
-34
-6
-13
-43
-56
-39
-14
-2
10
29
54
79
107
116
94
59
51
91
128
131
117
120
134
141
130
107
108
116
110
90
78
85
98
108
104
94
76
59
39
31
42
55
56
43
48
67
71
49
19
28
54
70
65
65
73
80
92
107
120
127
132
124
105
99
112
141
154
155
136
126
132
140
140
124
105
76
49
46
66
85
85
73
69
78
81
77
67
57
49
55
73
91
101
104
147
252
385
515
611
679
738
810
824
756
599
431
294
208
145
82
44
17
-8
-38
-63
-81
-87
-86
-92
-101
-103
-112
-129
-134
-108
-88
-95
-118
-146
-152
-139
-124
-134
-149
-148
-145
-145
-160
-179
-188
-178
-163
-172
-188
-198
-185
-176
-180
-188
-182
-153
-130
-120
-129
-126
-95
-57
-45
-70
-94
-72
-20
7
6
-5
-3
9
24
34
47
64
76
77
75
85
87
71
36
26
47
68
74
61
49
40
46
50
47
32
23
19
7
-11
-12
10
24
19
20
24
34
25
4
-10
-10
9
31
52
60
60
55
63
75
82
78
71
73
81
96
97
94
91
87
81
73
60
30
4
2
13
14
9
12
24
31
21
1
-11
-5
7
1
-15
-23
-17
-13
0
52
140
266
391
496
546
597
649
690
660
549
372
189
62
-5
-51
-104
-169
-229
-254
-254
-256
-292
-331
-351
-338
-330
-334
-337
-340
-336
-346
-352
-359
-355
-346
-332
-329
-352
-373
-392
-380
-378
-389
-406
-410
-397
-392
-379
-380
-359
-337
-332
-365
-391
-366
-333
-316
-316
-305
-292
-280
-270
-271
-269
-255
-215
-184
-176
-187
-210
-217
-189
-146
-124
-122
-126
-121
-112
-108
-105
-95
-87
-96
-118
-129
-116
-101
-93
-97
-106
-109
-106
-112
-134
-143
-133
-128
-138
-155
-148
-127
-121
-148
-175
-173
-155
-133
-123
-119
-118
-106
-95
-92
-98
-102
-90
-75
-64
-67
-78
-79
-60
-39
-48
-76
-90
-68
-49
-62
-99
-121
-123
-121
-116
-110
-112
-113
-113
-109
-105
-98
-97
-112
-133
-145
-146
-135
-116
-97
-80
-37
48
156
280
372
438
469
510
551
566
520
387
222
94
20
-32
-76
-106
-144
-180
-201
-213
-215
-225
-221
-214
-207
-221
-247
-252
-239
-219
-214
-214
-219
-227
-239
-251
-243
-232
-223
-226
-230
-231
-232
-229
-232
-233
-235
-227
-220
-210
-207
-215
-221
-222
-208
-197
-193
-198
-192
-166
-139
-125
-128
-139
-136
-102
-66
-41
-37
-45
-60
-61
-45
-19
1
4
1
8
18
24
28
31
31
32
33
35
23
9
10
21
27
4
-22
-35
-28
-17
-13
-10
-17
-18
-16
-16
-32
-48
-40
-10
15
23
16
-5
-23
-23
-13
-5
5
30
47
42
32
33
38
43
48
55
64
65
58
46
52
65
63
22
-17
-24
-11
-16
-50
-98
-146
-183
-205
-215
-215
-236
-317
-456
-640
-795
-892
-951
-990
-1016
-996
-966
-884
-799
-728
-683
-634
-553
-460
-363
-290
-236
-200
-180
-169
-153
-134
-115
-94
-77
-66
-72
-77
-66
-34
1
20
27
38
58
86
115
140
158
178
213
236
242
243
255
275
303
339
352
348
332
336
345
342
339
335
350
347
336
322
319
319
311
289
253
235
225
222
219
216
204
171
145
125
121
118
115
109
99
104
94
60
23
13
27
42
48
40
29
19
9
-4
-20
-28
-16
7
12
-2
-20
-23
-9
2
-1
-26
-47
-57
-60
-58
-58
-57
-56
-55
-59
-53
-30
-1
4
-15
-41
-63
-69
-54
-37
-30
-27
-18
-8
4
14
7
-25
-56
-64
-56
-59
-64
-72
-93
-117
-132
-133
-121
-105
-86
-74
-77
-103
-137
-152
-145
-136
-142
-148
-150
-132
-93
-22
71
196
316
410
465
489
525
540
539
457
308
149
22
-51
-97
-133
-163
-193
-213
-229
-234
-239
-244
-241
-240
-232
-232
-231
-237
-239
-237
-246
-263
-274
-266
-260
-252
-245
-240
-241
-248
-248
-247
-242
-249
-263
-278
-289
-291
-288
-270
-256
-249
-262
-284
-292
-274
-249
-234
-221
-215
-212
-208
-202
-200
-202
-192
-164
-128
-111
-112
-119
-115
-99
-84
-70
-50
-17
4
6
-25
-61
-56
-22
-2
-8
-12
-12
-19
-35
-45
-45
-43
-46
-51
-51
-46
-41
-37
-34
-41
-55
-74
-96
-109
-100
-80
-72
-73
-75
-66
-42
-25
-24
-36
-49
-58
-45
-19
-5
-4
-5
5
20
37
52
66
63
28
-23
-47
-12
26
23
-12
-56
-81
-77
-56
-30
-1
20
33
37
30
16
-1
0
9
23
53
118
208
318
428
527
610
660
723
754
755
688
568
437
309
240
195
168
129
78
40
28
27
16
-1
-21
-39
-53
-52
-56
-71
-80
-70
-58
-66
-77
-80
-80
-85
-86
-87
-103
-126
-149
-157
-141
-123
-118
-128
-141
-151
-153
-146
-135
-120
-117
-116
-116
-123
-121
-108
-91
-83
-73
-56
-27
-10
-12
-32
-50
-47
-13
27
42
42
34
40
55
72
86
91
88
80
80
90
92
73
46
34
34
44
54
63
63
59
51
46
44
45
44
36
40
52
61
61
56
59
65
82
100
126
146
145
133
113
107
111
128
150
165
167
168
178
178
184
187
185
183
186
183
167
166
163
142
107
99
124
143
157
158
148
117
97
101
117
130
131
132
123
116
124
152
181
230
316
432
550
635
714
754
775
738
657
558
442
363
296
255
204
144
89
63
66
63
53
27
-18
-69
-85
-60
-27
-13
-29
-60
-84
-87
-79
-75
-80
-90
-83
-69
-84
-120
-135
-125
-114
-109
-111
-123
-131
-136
-131
-122
-118
-125
-132
-130
-125
-112
-92
-63
-58
-70
-88
-90
-72
-32
1
-3
-33
-48
-19
26
45
42
46
61
71
72
72
76
78
85
88
91
97
101
96
88
83
71
54
40
49
66
63
47
32
31
28
16
3
-1
12
24
29
21
12
4
3
12
30
48
48
54
70
103
118
84
33
4
27
52
60
46
25
11
14
25
25
18
1
-16
-25
-18
-9
-29
-66
-90
-90
-90
-104
-108
-110
-99
-84
-73
-81
-100
-108
-88
-42
13
67
138
240
351
430
460
498
539
551
483
339
204
94
38
-2
-33
-69
-107
-144
-180
-206
-211
-206
-204
-209
-203
-184
-177
-191
-199
-176
-150
-149
-181
-229
-254
-242
-214
-210
-227
-235
-221
-212
-206
-202
-214
-237
-266
-271
-243
-194
-161
-171
-226
-281
-256
-189
-150
-154
-168
-162
-139
-108
-94
-100
-117
-108
-68
-22
-5
-28
-68
-86
-54
3
40
43
25
12
22
36
52
73
98
103
61
-24
-89
-68
-3
26
-13
-72
-90
-74
-53
-48
-54
-56
-43
-12
2
-29
-91
-126
-114
-85
-57
-33
-19
-26
-31
-23
-16
-30
-62
-77
-61
-19
13
27
16
-11
-36
-54
-57
-54
-64
-95
-125
-106
-52
-7
-11
-82
-204
-272
-226
-150
-113
-120
-136
-158
-180
-193
-187
-152
-113
-97
-140
-204
-197
-90
63
196
293
336
334
332
355
354
272
116
-26
-124
-177
-218
-242
-261
-298
-352
-381
-394
-412
-449
-475
-472
-446
-418
-434
-473
-500
-481
-455
-461
-480
-492
-465
-450
-455
-481
-487
-480
-470
-453
-441
-413
-400
-396
-444
-506
-541
-556
-556
-559
-528
-504
-468
-447
-449
-455
-462
-458
-482
-496
-495
-470
-457
-433
-382
-365
-381
-404
-421
-430
-410
-390
-402
-430
-432
-377
-324
-312
-380
-481
-527
-505
-437
-365
-327
-357
-423
-469
-477
-442
-399
-383
-429
-500
-544
-530
-479
-424
-395
-416
-461
-514
-509
-452
-404
-400
-430
-438
-442
-445
-465
-469
-438
-403
-389
-413
-429
-444
-425
-396
-382
-400
-450
-472
-465
-421
-401
-410
-449
-494
-528
-539
-498
-468
-457
-492
-546
-590
-573
-506
-476
-477
-512
-555
-591
-586
-541
-481
-422
-379
-310
-207
-66
45
115
160
192
169
87
-45
-193
-351
-493
-596
-598
-575
-581
-627
-660
-681
-692
-700
-722
-723
-717
-694
-689
-682
-693
-724
-766
-799
-769
-743
-720
-732
-741
-740
-739
-726
-745
-762
-799
-802
-803
-796
-780
-780
-759
-754
-742
-772
-799
-808
-774
-719
-714
-731
-766
-764
-763
-738
-711
-695
-684
-685
-674
-681
-680
-680
-659
-627
-625
-640
-665
-660
-648
-627
-609
-590
-582
-603
-627
-660
-656
-630
-606
-606
-636
-652
-655
-624
-612
-616
-644
-670
-669
-672
-677
-696
-679
-664
-647
-651
-653
-628
-619
-617
-648
-660
-666
-646
-621
-612
-596
-594
-576
-578
-576
-578
-564
-533
-519
-517
-555
-587
-603
-575
-556
-559
-565
-585
-599
-619
-613
-617
-606
-594
-591
-591
-614
-622
-625
-602
-588
-582
-574
-579
-581
-587
-557
-502
-406
-290
-140
-8
103
172
219
228
186
88
-58
-234
-361
-438
-469
-508
-545
-586
-614
-621
-628
-628
-658
-665
-662
-637
-615
-605
-605
-633
-631
-631
-629
-665
-684
-676
-655
-628
-634
-635
-653
-656
-660
-649
-646
-676
-688
-687
-656
-646
-635
-637
-650
-655
-655
-638
-631
-605
-601
-610
-621
-611
-585
-572
-556
-549
-527
-520
-518
-505
-483
-451
-436
-428
-447
-470
-455
-405
-370
-374
-389
-409
-414
-411
-399
-392
-387
-379
-375
-368
-384
-395
-400
-400
-402
-402
-386
-378
-366
-359
-351
-353
-356
-353
-351
-336
-336
-343
-363
-350
-312
-283
-268
-270
-262
-256
-237
-224
-213
-219
-240
-245
-230
-216
-220
-218
-204
-182
-170
-185
-218
-257
-280
-267
-220
-182
-176
-200
-240
-260
-246
-208
-186
-192
-217
-239
-232
-205
-168
-126
-72
-3
84
178
290
359
404
447
502
508
425
277
112
-9
-63
-89
-97
-108
-136
-183
-240
-274
-278
-249
-227
-220
-228
-234
-226
-207
-179
-177
-186
-210
-231
-244
-234
-210
-211
-223
-225
-205
-199
-197
-194
-189
-178
-179
-198
-217
-212
-194
-183
-178
-177
-162
-134
-108
-98
-101
-113
-110
-98
-81
-74
-60
-34
-14
-12
-24
-24
-10
14
26
37
53
72
96
107
114
113
99
77
80
103
119
135
135
128
118
124
134
144
156
157
147
123
104
102
118
134
143
146
135
127
122
137
151
153
146
151
181
213
233
231
223
206
200
199
202
223
246
266
267
271
268
270
274
279
288
273
252
225
215
217
227
237
220
210
204
213
222
234
237
224
231
239
249
244
245
256
294
370
464
587
680
771
825
890
946
941
868
725
591
480
411
355
304
261
226
213
203
188
161
146
143
153
164
159
144
121
114
117
131
147
150
131
97
87
104
130
138
132
116
94
70
55
69
83
79
65
65
75
80
84
89
94
90
90
97
103
119
131
139
135
145
165
185
196
192
198
209
219
216
224
238
253
266
264
271
267
269
272
287
296
287
281
272
278
279
293
289
266
252
242
243
245
257
257
263
258
240
215
202
218
233
243
232
220
219
231
247
253
265
271
283
287
285
277
274
294
311
324
326
338
345
336
307
278
279
291
300
285
268
256
246
246
242
241
230
233
244
257
271
265
255
230
210
204
225
251
266
276
284
343
434
560
654
740
793
841
913
938
903
769
621
491
407
358
301
240
164
118
118
130
116
81
63
71
87
91
96
100
88
55
35
45
58
56
42
27
12
8
15
26
33
23
17
18
14
-7
-26
-26
-26
-40
-67
-76
-57
-31
-17
-13
-5
7
25
34
19
-13
-12
25
49
45
25
15
24
54
80
82
82
82
91
103
124
131
130
120
107
106
101
88
81
98
107
97
68
36
39
69
90
73
46
35
42
58
63
53
36
40
58
72
66
52
58
83
103
86
59
57
86
112
119
124
130
148
157
166
172
168
153
133
133
140
141
121
106
104
108
119
123
122
111
113
124
130
121
100
75
61
80
99
97
94
110
149
202
273
333
398
461
557
636
686
703
670
627
528
413
290
199
149
115
91
44
-17
-62
-67
-54
-64
-88
-105
-101
-86
-77
-83
-97
-104
-93
-75
-63
-64
-82
-112
-145
-167
-161
-133
-112
-118
-142
-151
-144
-144
-150
-147
-141
-127
-102
-73
-61
-89
-141
-181
-170
-124
-84
-67
-60
-51
-39
-26
-12
6
21
24
14
19
42
62
67
39
16
28
64
95
105
103
98
96
79
65
69
88
103
116
128
127
109
76
66
75
90
97
100
101
95
83
57
47
60
84
98
102
102
102
119
137
144
138
140
156
168
171
156
138
125
141
167
185
198
191
189
182
176
168
159
151
137
134
126
121
114
112
113
120
133
139
144
127
88
48
47
75
94
97
91
97
133
218
315
414
499
581
649
711
772
751
664
503
362
268
197
142
86
44
5
-19
-32
-45
-64
-87
-100
-109
-116
-112
-108
-108
-105
-99
-98
-105
-119
-132
-144
-154
-154
-143
-130
-125
-141
-173
-200
-204
-191
-183
-186
-193
-189
-184
-179
-171
-156
-152
-147
-135
-120
-110
-116
-128
-142
-128
-92
-58
-38
-25
-20
-17
-7
0
2
4
7
13
33
73
111
128
99
30
-25
-8
43
69
62
51
48
47
47
39
36
32
30
29
27
30
35
44
36
16
3
11
11
-2
0
13
30
36
42
56
68
74
72
72
72
84
100
111
105
99
105
112
119
117
116
103
83
71
63
61
49
44
48
49
35
19
20
18
8
-1
3
3
-9
-17
-24
-21
-14
-6
-10
-9
33
127
240
341
415
469
520
556
591
568
484
334
170
63
-2
-48
-93
-129
-152
-167
-187
-203
-212
-209
-199
-190
-205
-235
-267
-276
-254
-233
-225
-218
-209
-214
-219
-229
-237
-240
-249
-262
-276
-274
-264
-264
-264
-259
-242
-233
-228
-227
-234
-241
-233
-208
-208
-221
-229
-222
-217
-206
-194
-187
-171
-144
-113
-103
-115
-131
-121
-101
-100
-112
-115
-89
-55
-33
-34
-52
-60
-55
-49
-54
-57
-56
-59
-52
-43
-54
-72
-82
-81
-70
-67
-71
-74
-68
-60
-59
-81
-101
-100
-92
-88
-83
-80
-78
-73
-59
-51
-53
-55
-34
-26
-35
-38
-12
17
20
14
11
7
-3
-2
1
-4
-11
-15
-14
-22
-35
-55
-75
-69
-57
-56
-62
-53
-43
-41
-36
-29
-27
-50
-77
-81
-70
-59
-39
7
70
142
220
315
421
510
560
601
606
567
463
325
203
102
55
35
15
-17
-45
-57
-69
-91
-117
-130
-126
-114
-105
-106
-117
-126
-125
-130
-155
-176
-170
-144
-128
-120
-122
-140
-161
-175
-171
-162
-150
-143
-146
-152
-159
-156
-154
-155
-156
-151
-145
-145
-141
-127
-109
-128
-155
-142
-100
-64
-46
-39
-41
-50
-56
-45
-26
-33
-55
-50
-9
22
21
12
35
68
72
44
38
64
89
88
70
48
23
5
-8
-1
15
26
31
23
14
-1
-16
-26
-25
-7
21
52
65
71
78
74
54
49
71
83
60
23
24
60
73
53
38
64
116
159
151
114
82
72
72
51
31
33
54
75
103
121
114
92
71
58
36
27
23
28
42
36
10
6
29
46
41
33
39
68
119
191
275
369
459
536
585
628
658
649
579
434
287
167
109
89
99
85
14
-63
-101
-93
-58
-45
-63
-86
-93
-96
-104
-111
-125
-146
-153
-138
-122
-117
-125
-135
-149
-173
-179
-155
-134
-144
-178
-210
-227
-204
-173
-155
-173
-218
-243
-239
-208
-184
-164
-151
-146
-157
-165
-154
-146
-138
-129
-115
-97
-89
-100
-119
-123
-103
-67
-50
-54
-60
-51
-33
-17
-7
0
-6
-18
-12
0
-18
-73
-119
-127
-102
-66
-50
-66
-105
-124
-116
-97
-87
-90
-88
-92
-99
-102
-83
-68
-94
-128
-122
-82
-63
-86
-122
-142
-132
-103
-76
-69
-65
-51
-37
-44
-67
-75
-58
-28
-27
-51
-68
-66
-60
-71
-85
-92
-84
-82
-95
-106
-104
-92
-88
-91
-104
-109
-102
-91
-80
-76
-82
-100
-122
-111
-39
62
171
282
369
417
451
495
522
499
403
272
127
22
-43
-64
-69
-105
-178
-237
-255
-251
-256
-271
-299
-325
-321
-302
-281
-272
-252
-231
-235
-280
-334
-350
-355
-350
-339
-321
-320
-330
-336
-346
-342
-343
-334
-329
-326
-317
-315
-308
-311
-307
-326
-349
-364
-351
-321
-298
-270
-267
-282
-308
-298
-268
-243
-224
-218
-211
-201
-162
-122
-113
-150
-203
-220
-185
-132
-103
-93
-89
-95
-115
-133
-137
-137
-149
-168
-166
-138
-114
-114
-132
-161
-199
-219
-204
-172
-160
-172
-184
-195
-200
-205
-208
-220
-218
-204
-194
-180
-173
-175
-180
-165
-145
-152
-183
-202
-185
-162
-145
-132
-121
-123
-148
-180
-199
-211
-227
-214
-180
-164
-185
-224
-241
-227
-191
-194
-236
-271
-272
-259
-273
-300
-318
-292
-245
-200
-178
-178
-164
-118
-40
58
178
266
310
341
435
516
490
330
139
-7
-85
-130
-130
-106
-134
-236
-316
-308
-250
-240
-308
-347
-290
-190
-155
-223
-349
-405
-340
-236
-145
-117
-185
-304
-361
-362
-368
-379
-375
-316
-248
-206
-210
-244
-278
-299
-285
-243
-212
-253
-305
-321
-334
-334
-268
-157
-150
-257
-332
-239
-18
154
89
-185
-388
-317
-102
6
-45
-153
-193
-127
-13
67
79
93
136
112
-26
-169
-175
-40
94
91
-9
-62
3
109
141
48
-32
-6
14
-29
-42
39
132
127
35
-28
-10
0
-4
41
108
123
96
55
36
91
150
152
139
159
133
74
94
247
347
199
-41
-67
89
189
197
205
256
309
289
174
78
139
260
317
286
170
51
74
165
114
-12
-37
33
158
300
396
361
269
232
325
461
580
742
848
785
647
656
764
794
632
365
185
150
186
261
347
329
187
7
-116
-118
-2
156
255
270
174
46
-2
8
60
151
158
62
44
112
70
-34
3
133
132
20
-36
7
67
74
54
39
32
36
55
26
-24
-27
20
86
112
45
-50
-48
44
127
158
122
85
104
160
170
147
160
197
249
265
177
51
55
148
191
192
212
237
199
150
141
165
210
262
275
164
15
-30
39
105
97
55
36
68
125
186
221
221
145
30
-14
-2
11
43
86
94
84
96
112
123
136
142
115
106
129
149
142
126
135
156
167
134
78
41
63
128
159
124
54
28
55
109
149
156
135
99
58
19
3
-1
4
26
58
116
145
131
133
226
374
502
590
611
610
591
600
595
540
434
319
248
201
169
125
44
-35
-75
-84
-90
-78
-51
-57
-107
-160
-175
-179
-182
-166
-154
-164
-189
-195
-176
-141
-113
-112
-137
-196
-270
-301
-214
-114
-152
-278
-336
-311
-293
-260
-181
-70
-31
-138
-315
-381
-297
-194
-175
-240
-276
-222
-127
-70
-64
-99
-138
-125
-85
-101
-157
-122
-1
74
4
-125
-158
-92
-31
17
78
59
-77
-192
-163
-33
88
136
52
-89
-148
-126
-82
-17
63
33
-131
-237
-174
-24
100
127
34
-100
-198
-233
-177
-58
12
-32
-82
-52
-21
-37
-57
-32
24
78
90
22
-78
-109
-64
-34
-40
-30
11
33
-12
-112
-195
-205
-157
-92
-32
46
85
34
-65
-130
-146
-149
-150
-145
-137
-128
-118
-109
-69
2
47
48
70
154
262
397
514
603
590
495
390
303
226
150
68
-30
-127
-154
-140
-167
-264
-372
-427
-455
-414
-324
-241
-255
-352
-420
-419
-335
-235
-157
-172
-298
-465
-571
-576
-514
-388
-302
-316
-394
-454
-449
-424
-419
-444
-442
-429
-400
-357
-323
-300
-288
-289
-326
-376
-428
-454
-433
-394
-373
-379
-363
-317
-272
-273
-299
-309
-294
-275
-279
-285
-264
-209
-160
-146
-185
-232
-211
-169
-175
-212
-212
-208
-250
-302
-331
-311
-272
-236
-221
-217
-228
-265
-294
-308
-298
-296
-308
-319
-314
-301
-319
-332
-322
-291
-283
-288
-288
-274
-237
-210
-215
-244
-257
-259
-252
-230
-218
-231
-252
-259
-266
-270
-259
-242
-234
-231
-229
-229
-226
-237
-255
-266
-284
-292
-269
-227
-227
-260
-288
-300
-295
-275
-250
-231
-200
-164
-132
-98
-6
127
243
282
324
394
477
525
496
405
232
56
-36
-65
-101
-179
-250
-266
-235
-196
-209
-265
-325
-331
-306
-269
-230
-238
-289
-330
-307
-278
-274
-288
-290
-281
-287
-294
-307
-318
-341
-365
-360
-335
-301
-296
-299
-308
-314
-317
-316
-309
-309
-311
-319
-315
-297
-261
-228
-221
-237
-255
-248
-235
-221
-198
-172
-167
-169
-154
-126
-104
-91
-76
-59
-37
-33
-48
-54
-43
-24
-16
-15
-28
-45
-53
-48
-38
-50
-86
-121
-118
-89
-75
-82
-106
-130
-134
-110
-93
-104
-135
-152
-141
-125
-114
-105
-102
-104
-103
-103
-102
-98
-96
-72
-21
52
130
227
342
463
551
587
580
550
499
393
255
121
43
-1
-25
-56
-114
-168
-189
-197
-201
-199
-192
-193
-200
-228
-281
-307
-290
-248
-226
-221
-221
-228
-245
-272
-277
-269
-244
-247
-256
-259
-260
-258
-270
-272
-260
-229
-200
-189
-208
-260
-298
-299
-268
-252
-242
-221
-209
-197
-185
-169
-170
-168
-148
-102
-49
-22
-42
-96
-143
-141
-89
-28
8
12
1
-13
-20
-16
-7
-8
-19
-16
-16
-26
-37
-37
-31
-17
3
12
26
46
61
57
49
40
9
-26
-46
-35
-8
10
5
-2
2
14
31
32
19
5
10
29
53
75
60
23
-1
7
30
46
56
52
45
36
46
71
94
100
102
104
112
126
130
119
102
102
107
111
115
118
121
118
131
145
146
128
108
99
91
77
55
38
36
55
63
55
51
49
54
54
48
40
43
64
89
134
195
288
381
476
557
613
672
719
751
703
608
486
377
287
202
143
104
61
8
-33
-41
-41
-44
-54
-75
-103
-116
-106
-95
-71
-46
-40
-58
-83
-96
-98
-93
-90
-100
-124
-138
-144
-153
-157
-165
-159
-147
-142
-141
-124
-113
-139
-177
-192
-188
-180
-163
-137
-114
-116
-138
-148
-148
-148
-147
-139
-118
-79
-45
-39
-54
-68
-64
-57
-43
-26
-12
-20
-53
-66
-40
5
15
-2
-11
-3
7
-13
-39
-48
-37
-20
-8
-10
-17
-16
-15
-14
-15
-13
-10
-17
-33
-46
-41
-33
-28
-18
-5
-2
-8
-17
-12
7
35
59
69
68
71
85
103
117
119
98
72
57
65
76
89
99
99
90
66
46
40
50
54
46
38
32
34
35
41
49
62
69
70
62
39
25
28
58
114
212
317
409
492
535
570
587
624
627
576
474
341
248
191
162
122
74
37
21
14
-1
-18
-32
-40
-41
-38
-27
-16
-17
-26
-30
-40
-49
-49
-44
-47
-55
-57
-50
-54
-76
-93
-88
-76
-74
-82
-91
-95
-93
-89
-89
-92
-90
-86
-86
-83
-76
-69
-65
-62
-53
-48
-37
-30
-21
-19
-16
-12
0
15
26
39
47
60
66
73
82
86
89
88
93
94
95
96
92
91
92
98
98
97
87
81
78
79
79
75
72
68
73
74
70
63
57
55
56
67
71
71
67
70
75
77
80
78
84
93
102
109
112
113
113
120
123
124
119
118
120
123
126
119
109
98
89
82
84
89
65
35
26
48
62
59
51
46
50
55
46
17
11
42
94
135
166
215
290
384
463
546
603
647
659
612
516
365
255
187
142
101
60
19
-16
-39
-58
-80
-98
-120
-136
-140
-133
-127
-130
-146
-160
-162
-161
-157
-151
-145
-142
-147
-160
-174
-180
-176
-171
-179
-195
-206
-212
-213
-213
-209
-203
-194
-185
-184
-186
-189
-187
-174
-156
-148
-136
-122
-118
-116
-109
-87
-77
-74
-65
-52
-46
-44
-38
-25
-15
-6
8
19
29
24
14
9
15
19
15
12
14
17
12
5
-1
-3
-5
-9
-9
-12
-17
-23
-27
-26
-23
-22
-25
-28
-32
-32
-32
-26
-23
-12
-1
2
-1
5
12
17
18
24
25
31
35
43
45
41
35
30
31
32
24
0
-25
-38
-45
-39
-37
-44
-67
-84
-80
-65
-52
-56
-66
-79
-90
-99
-106
-104
-89
-62
-18
43
126
223
304
383
434
484
514
498
438
318
205
100
20
-48
-110
-167
-220
-250
-253
-258
-268
-288
-296
-301
-314
-322
-323
-317
-327
-329
-323
-314
-308
-311
-317
-332
-334
-334
-334
-336
-338
-347
-362
-368
-373
-372
-373
-367
-359
-351
-346
-355
-352
-354
-350
-339
-315
-298
-300
-300
-296
-276
-261
-248
-247
-236
-217
-204
-187
-180
-170
-165
-145
-127
-122
-118
-116
-112
-114
-116
-118
-118
-121
-120
-109
-99
-97
-105
-113
-119
-123
-123
-122
-117
-115
-116
-124
-128
-130
-132
-137
-146
-148
-144
-137
-132
-131
-123
-113
-110
-107
-96
-85
-84
-88
-93
-96
-88
-80
-72
-70
-64
-53
-61
-75
-87
-98
-109
-113
-112
-114
-123
-135
-141
-137
-132
-125
-121
-122
-125
-122
-119
-123
-128
-138
-132
-111
-68
0
85
182
274
347
406
440
471
473
430
345
212
102
25
-20
-62
-100
-126
-143
-160
-182
-208
-227
-236
-233
-228
-227
-229
-234
-234
-230
-224
-226
-228
-228
-234
-241
-246
-240
-236
-234
-241
-248
-250
-251
-252
-256
-256
-258
-253
-245
-232
-221
-236
-252
-254
-237
-223
-208
-194
-189
-183
-177
-164
-153
-141
-132
-120
-109
-99
-89
-79
-65
-57
-54
-50
-42
-29
-18
-15
-16
-18
-18
-18
-16
-16
-22
-24
-28
-27
-25
-24
-24
-24
-22
-21
-28
-46
-60
-57
-48
-41
-45
-41
-34
-30
-33
-34
-25
-18
-15
-17
-12
-5
3
14
26
39
33
22
18
30
43
54
55
38
22
14
20
27
26
14
-5
-15
-23
-25
-26
-30
-34
-37
-36
-31
-23
-26
-35
-44
-46
-48
-58
-56
-37
0
61
135
225
325
419
495
547
584
613
603
552
426
297
186
122
71
21
-31
-77
-100
-103
-101
-121
-157
-187
-199
-188
-170
-165
-173
-180
-178
-182
-187
-186
-188
-186
-190
-193
-197
-192
-186
-200
-213
-220
-213
-212
-213
-214
-211
-210
-210
-198
-194
-196
-202
-198
-189
-180
-160
-148
-141
-136
-121
-119
-120
-112
-94
-74
-61
-47
-34
-26
-26
-17
-2
3
3
10
21
26
28
32
42
43
38
30
30
36
38
29
16
14
13
12
8
11
12
9
2
-8
-6
2
4
2
2
7
7
14
23
29
30
40
54
59
68
75
72
63
67
77
90
100
103
99
83
73
73
77
71
57
50
39
26
8
-2
-2
4
12
14
11
3
-5
-10
-5
-5
-9
-19
-26
-19
9
64
146
243
345
444
526
576
614
634
643
579
459
298
185
121
76
18
-42
-83
-95
-98
-108
-127
-151
-174
-192
-196
-188
-180
-181
-182
-189
-196
-193
-188
-186
-197
-201
-202
-196
-190
-185
-180
-182
-188
-200
-200
-199
-200
-200
-204
-195
-184
-171
-166
-155
-140
-130
-124
-126
-125
-125
-114
-92
-65
-46
-42
-41
-34
-17
2
14
19
28
42
40
24
27
52
80
92
92
92
86
83
80
88
100
101
92
82
87
86
78
70
73
82
88
86
67
49
44
55
61
58
58
63
71
74
85
98
110
111
99
99
104
111
115
125
139
160
175
179
175
158
149
143
147
155
155
147
141
136
125
126
136
147
145
141
138
129
129
135
152
159
163
160
154
166
196
243
292
365
460
560
644
699
748
773
782
727
629
496
394
332
294
262
216
171
137
124
115
105
99
85
76
75
85
90
84
78
73
79
84
98
104
105
99
87
87
91
96
92
90
92
93
91
90
95
96
94
92
101
112
120
124
127
135
144
159
166
177
189
198
204
212
235
252
269
274
283
297
307
317
327
345
355
366
366
375
387
392
393
382
388
392
404
407
404
401
389
391
386
395
395
398
397
387
388
381
393
400
408
400
399
406
412
427
425
428
421
433
446
456
462
468
486
487
492
484
478
479
498
516
514
516
504
510
506
515
515
506
496
478
476
473
485
485
483
485
485
489
483
492
486
485
480
482
483
476
488
505
552
604
676
773
884
1003
1074
1145
1186
1206
1159
1041
889
759
685
635
606
565
526
492
466
456
435
423
406
404
391
393
403
404
402
393
401
396
399
392
384
385
385
391
384
388
385
386
375
367
370
370
375
364
362
357
365
372
384
397
396
402
401
414
418
428
436
442
456
464
486
494
499
504
513
526
528
545
555
575
578
579
583
595
618
621
630
620
616
605
606
614
608
616
612
612
598
601
603
602
603
586
583
575
591
594
597
595
591
593
590
602
588
592
601
621
628
622
633
631
639
638
648
641
639
643
642
655
653
656
642
630
608
597
599
598
604
592
587
565
549
543
545
554
548
547
536
536
536
537
540
526
520
500
504
538
614
703
791
902
969
1028
1064
1122
1130
1063
940
796
694
617
576
538
511
472
426
411
408
409
384
364
354
359
366
360
355
341
342
340
355
360
365
363
356
354
352
364
363
360
349
341
336
332
344
340
337
323
316
311
315
328
329
336
336
345
350
355
359
359
371
379
399
402
400
388
389
407
415
431
431
439
433
433
437
436
444
438
442
429
430
431
431
419
394
383
370
378
372
360
337
319
318
319
314
287
275
268
265
258
249
243
224
215
210
214
213
208
201
196
199
195
192
177
172
174
177
183
186
185
174
172
160
146
136
134
129
103
75
54
48
47
42
30
16
13
10
4
-5
-5
-8
-19
-36
-52
-55
-46
-18
22
81
158
247
354
427
478
495
518
507
449
349
204
76
-11
-63
-103
-152
-201
-252
-292
-313
-328
-340
-364
-376
-396
-405
-411
-424
-433
-446
-455
-480
-494
-500
-494
-489
-497
-503
-515
-514
-525
-527
-536
-544
-542
-543
-537
-546
-550
-562
-568
-564
-560
-559
-567
-563
-563
-554
-545
-532
-534
-551
-547
-544
-538
-544
-534
-519
-516
-514
-514
-497
-492
-488
-495
-494
-492
-495
-483
-484
-482
-499
-499
-509
-518
-517
-523
-525
-543
-540
-552
-562
-578
-583
-582
-596
-596
-607
-603
-612
-617
-621
-632
-629
-634
-632
-647
-645
-646
-641
-638
-645
-641
-649
-645
-647
-631
-625
-632
-641
-653
-650
-649
-644
-658
-667
-669
-682
-696
-725
-734
-742
-737
-741
-749
-764
-776
-760
-764
-768
-790
-795
-793
-793
-788
-808
-813
-821
-787
-740
-674
-585
-491
-377
-288
-215
-148
-97
-105
-169
-294
-444
-572
-668
-716
-775
-816
-865
-902
-918
-942
-951
-984
-994
-1012
-1013
-1018
-1029
-1021
-1032
-1027
-1040
-1028
-1028
-1025
-1012
-1018
-1022
-1036
-1026
-1036
-1037
-1039
-1036
-1036
-1051
-1044
-1055
-1044
-1044
-1040
-1039
-1045
-1032
-1034
-1014
-1020
-1021
-1025
-1020
-1003
-998
-980
-990
-980
-989
-975
-968
-961
-945
-954
-941
-948
-927
-926
-918
-912
-914
-901
-913
-905
-920
-907
-896
-883
-883
-910
-912
-921
-908
-921
-911
-909
-916
-925
-938
-931
-940
-928
-937
-936
-949
-962
-948
-945
-934
-953
-961
-969
-959
-936
-928
-912
-918
-911
-917
-911
-911
-910
-906
-899
-874
-881
-884
-908
-918
-914
-914
-913
-937
-933
-939
-924
-920
-921
-918
-928
-917
-935
-932
-944
-936
-940
-936
-915
-925
-921
-936
-917
-910
-863
-784
-700
-612
-562
-507
-461
-403
-382
-414
-514
-647
-746
-803
-803
-822
-832
-845
-857
-864
-882
-885
-899
-888
-893
-882
-872
-869
-865
-876
-868
-878
-870
-865
-860
-856
-857
-839
-835
-821
-829
-829
-824
-811
-800
-804
-793
-804
-800
-792
-773
-770
-778
-767
-775
-762
-759
-739
-734
-734
-733
-734
-716
-717
-697
-689
-674
-675
-675
-663
-655
-631
-639
-641
-654
-642
-630
-626
-619
-627
-613
-612
-601
-602
-595
-591
-597
-596
-608
-608
-618
-609
-596
-588
-588
-596
-592
-592
-580
-587
-584
-578
-574
-566
-567
-561
-562
-553
-548
-539
-529
-528
-520
-518
-503
-496
-494
-506
-512
-501
-490
-475
-480
-480
-483
-476
-476
-480
-475
-475
-468
-473
-466
-461
-462
-461
-463
-452
-455
-449
-447
-439
-442
-447
-442
-442
-432
-428
-404
-382
-344
-283
-215
-152
-108
-59
-13
10
-22
-110
-217
-289
-323
-340
-352
-365
-367
-372
-375
-377
-384
-386
-392
-388
-381
-376
-372
-372
-374
-372
-361
-356
-346
-343
-340
-339
-339
-332
-330
-323
-324
-323
-322
-315
-309
-309
-301
-299
-292
-287
-277
-279
-278
-276
-277
-270
-264
-253
-254
-254
-252
-246
-234
-228
-220
-217
-214
-216
-215
-208
-200
-188
-185
-183
-185
-177
-168
-161
-157
-157
-155
-156
-152
-149
-145
-140
-138
-139
-143
-145
-144
-137
-133
-133
-130
-124
-118
-119
-121
-120
-115
-113
-113
-114
-114
-110
-109
-105
-98
-90
-86
-81
-79
-77
-77
-77
-77
-71
-66
-67
-66
-64
-59
-53
-53
-53
-58
-52
-46
-48
-45
-43
-39
-40
-34
-34
-36
-36
-28
-21
-17
-19
-23
-25
-22
-18
-20
-21
-20
-18
-12
3
28
74
134
194
246
296
347
367
337
257
156
98
66
47
32
24
23
24
26
24
23
24
25
26
27
31
28
30
28
30
30
32
37
36
41
44
48
47
48
50
55
59
57
57
54
55
56
61
67
63
66
65
68
66
69
73
73
74
76
79
80
84
84
87
87
86
87
88
92
93
97
99
101
98
99
102
103
106
105
107
108
113
119
122
120
112
114
114
120
121
123
123
124
126
121
122
123
125
125
126
130
127
130
131
133
132
135
141
139
143
143
143
136
136
137
140
146
146
151
150
154
150
153
157
161
165
163
163
153
149
147
151
153
152
154
151
152
150
152
152
150
149
145
148
144
146
141
140
139
139
141
144
160
172
192
208
233
266
281
269
223
185
160
152
145
146
148
150
152
150
154
153
152
150
150
155
152
153
149
153
153
155
160
156
159
159
164
164
166
167
163
163
161
164
162
163
160
162
163
164
167
166
170
167
171
171
171
173
173
176
174
178
178
183
183
182
181
179
184
185
189
188
192
192
192
192
194
200
199
200
199
203
203
200
203
199
206
205
203
197
197
203
204
208
203
205
201
204
205
206
209
203
204
201
204
202
203
205
198
199
196
202
203
206
207
204
205
206
209
205
208
203
204
205
208
210
201
201
196
201
199
198
197
196
198
196
198
192
192
192
195
196
195
197
190
193
191
191
190
189
190
195
215
246
291
329
355
364
360
364
351
313
255
223
215
217
218
209
207
199
200
198
199
199
198
202
198
201
195
198
197
199
202
198
200
196
200
199
199
199
198
198
194
195
192
194
192
194
195
194
194
192
194
192
194
191
189
188
188
190
190
195
195
199
196
195
195
194
198
192
194
192
194
192
191
191
191
196
195
200
198
195
195
197
201
198
198
196
198
195
196
204
199
198
192
190
189
191
194
193
193
190
195
192
194
189
189
193
194
197
193
196
192
198
199
195
192
187
191
190
194
194
190
188
184
183
183
190
189
192
192
193
190
188
190
191
196
193
193
190
190
193
193
196
190
192
190
191
187
186
189
190
199
206
223
249
284
322
362
404
409
381
319
262
225
217
218
210
206
199
199
195
195
197
192
190
184
184
182
184
183
182
181
178
180
177
180
176
178
179
176
177
172
173
169
171
171
170
171
168
167
164
167
163
165
163
163
162
161
161
162
164
161
164
163
162
162
162
166
163
167
165
166
161
160
166
163
164
161
159
158
159
161
161
164
159
161
159
162
158
158
161
157
158
154
157
156
156
160
155
157
155
156
151
152
152
151
152
151
152
147
150
148
150
150
150
151
148
151
149
152
152
153
152
148
149
146
150
149
149
146
144
141
138
138
137
140
139
140
139
138
139
141
147
144
144
140
140
137
140
148
152
168
189
226
257
280
298
306
307
270
217
171
148
138
137
138
131
129
123
123
120
121
121
117
117
114
115
111
110
113
112
112
110
111
107
109
107
106
105
105
104
103
104
103
103
101
99
97
94
94
92
97
96
95
92
90
92
93
98
97
100
98
98
98
98
98
98
101
99
101
102
106
104
104
105
104
107
107
109
108
110
113
104
100
95
96
94
92
90
89
92
88
86
81
81
79
80
81
76
77
78
80
79
79
80
74
74
72
71
70
72
73
71
68
67
71
78
92
114
148
187
231
279
325
356
347
303
220
153
111
94
90
86
84
76
72
69
70
70
66
63
59
58
55
56
54
54
52
52
56
53
51
51
50
49
50
52
50
53
51
51
48
45
45
41
41
38
38
38
41
40
41
41
41
42
40
42
40
41
40
37
38
37
38
38
40
38
35
36
37
36
34
35
35
34
32
32
33
31
32
30
29
26
28
27
26
24
22
24
20
21
19
18
15
12
14
12
11
8
9
11
12
11
11
12
10
11
12
16
17
14
14
12
12
9
10
11
9
10
4
6
7
6
3
6
11
17
20
14
9
11
15
15
13
18
22
21
10
1
-5
-2
0
1
5
10
12
15
19
14
4
-6
-11
-5
0
-1
-3
-2
-2
-1
-1
-1
-2
5
25
41
58
85
109
125
152
208
248
258
217
147
78
43
30
27
20
11
4
-1
2
2
1
3
-1
1
2
2
2
2
2
-4
-4
-5
-7
-9
-10
-9
-11
-9
-10
-8
-7
-8
-11
-13
-14
-19
-19
-19
-17
-16
-13
-15
-20
-19
-14
-11
-15
-16
-19
-21
-20
-18
-16
-14
-13
-14
-13
-16
-16
-17
-15
-15
-16
-17
-16
-17
-18
-18
-14
-14
-14
-21
-22
-20
-15
-18
-21
-21
-24
-27
-30
-32
-33
-32
-32
-31
-31
-34
-34
-34
-36
-37
-34
-32
-39
-42
-39
-38
-40
-40
-36
-38
-35
-30
-26
-26
-28
-27
-29
-33
-35
-32
-27
-24
-28
-34
-35
-32
-30
-28
-30
-32
-36
-40
-40
-39
-42
-44
-43
-38
-37
-40
-45
-48
-39
-29
-31
-41
-50
-52
-49
-42
-34
-24
-5
21
45
89
132
174
202
214
194
129
48
1
-7
-4
-12
-25
-36
-40
-40
-36
-33
-33
-41
-45
-42
-41
-39
-42
-44
-48
-50
-48
-47
-44
-45
-47
-49
-52
-53
-54
-52
-53
-51
-50
-51
-53
-53
-55
-56
-53
-50
-51
-54
-54
-52
-49
-49
-49
-44
-43
-45
-52
-55
-55
-50
-47
-46
-48
-45
-31
-26
-34
-43
-45
-43
-42
-34
-26
-20
-27
-41
-52
-50
-31
-19
-18
-32
-45
-49
-43
-32
-30
-39
-53
-56
-49
-43
-43
-49
-51
-49
-38
-37
-49
-64
-72
-65
-63
-61
-66
-71
-70
-60
-48
-49
-56
-62
-62
-61
-65
-70
-66
-49
-42
-55
-69
-69
-64
-67
-76
-78
-74
-72
-75
-72
-59
-56
-65
-84
-94
-90
-78
-70
-76
-87
-90
-93
-95
-92
-92
-96
-93
-74
-23
46
89
75
40
57
122
182
162
79
-7
-56
-60
-58
-57
-70
-88
-101
-106
-101
-94
-89
-92
-96
-100
-102
-101
-100
-96
-94
-91
-90
-90
-93
-101
-104
-108
-106
-102
-97
-93
-98
-107
-113
-112
-106
-98
-92
-99
-110
-115
-111
-107
-97
-88
-90
-99
-109
-116
-114
-106
-103
-100
-99
-96
-100
-104
-108
-109
-100
-91
-88
-88
-91
-96
-92
-87
-90
-94
-82
-68
-74
-93
-95
-81
-75
-88
-98
-100
-84
-75
-84
-101
-119
-121
-118
-106
-100
-98
-100
-104
-111
-118
-118
-117
-117
-115
-109
-98
-99
-106
-115
-111
-109
-111
-111
-105
-103
-104
-100
-91
-87
-94
-111
-125
-122
-101
-86
-92
-111
-118
-107
-98
-110
-119
-109
-98
-112
-129
-126
-118
-115
-119
-123
-121
-115
-111
-124
-127
-111
-78
-42
9
62
108
143
149
130
111
117
108
55
-14
-71
-88
-85
-89
-98
-107
-107
-115
-116
-116
-111
-100
-103
-109
-112
-108
-106
-110
-113
-113
-112
-116
-111
-112
-108
-111
-110
-107
-109
-121
-130
-128
-124
-121
-122
-120
-120
-125
-128
-128
-120
-116
-120
-129
-131
-127
-126
-131
-136
-135
-121
-110
-116
-129
-133
-124
-115
-115
-114
-114
-110
-107
-102
-97
-102
-114
-122
-122
-116
-107
-92
-83
-88
-102
-103
-100
-100
-104
-107
-108
-115
-109
-106
-108
-120
-124
-116
-107
-100
-100
-101
-105
-108
-112
-107
-81
-64
-78
-105
-110
-96
-94
-104
-94
-50
-27
-53
-86
-90
-80
-71
-70
-71
-73
-77
-77
-79
-82
-92
-102
-98
-84
-71
-69
-80
-98
-109
-99
-80
-69
-71
-72
-79
-89
-96
-88
-76
-78
-86
-68
-3
86
140
130
138
188
254
274
247
172
73
18
2
-6
-36
-76
-94
-93
-84
-84
-91
-94
-95
-93
-97
-94
-87
-82
-92
-106
-104
-91
-88
-98
-100
-93
-91
-91
-89
-92
-96
-94
-90
-87
-88
-91
-99
-103
-104
-104
-106
-108
-105
-102
-96
-93
-98
-105
-103
-94
-84
-78
-81
-80
-77
-73
-77
-84
-79
-70
-64
-66
-64
-63
-65
-60
-54
-45
-49
-61
-66
-56
-51
-60
-71
-73
-65
-61
-61
-59
-56
-47
-40
-46
-59
-60
-54
-55
-63
-60
-46
-48
-64
-70
-61
-53
-48
-36
-28
-36
-52
-53
-44
-44
-44
-24
-7
-8
-24
-28
-24
-23
-17
-13
-16
-20
-20
-12
-18
-26
-24
3
26
10
-34
-56
-45
-34
-38
-46
-45
-36
-30
-33
-63
-91
-88
-58
-28
-13
0
38
104
182
268
338
394
410
410
369
297
232
162
99
52
31
14
-15
-38
-39
-36
-49
-67
-66
-60
-60
-59
-52
-53
-64
-65
-50
-45
-56
-70
-78
-82
-91
-95
-88
-77
-72
-76
-85
-92
-93
-94
-90
-85
-92
-106
-115
-105
-99
-98
-101
-100
-97
-96
-96
-100
-101
-103
-102
-94
-84
-75
-74
-76
-72
-60
-60
-66
-56
-24
-5
-18
-35
-35
-26
-17
-5
3
-10
-20
-8
7
-5
-25
-30
-25
-15
-10
-19
-48
-67
-54
-34
-27
-43
-69
-89
-93
-87
-79
-69
-61
-62
-70
-81
-93
-92
-72
-43
-31
-35
-40
-45
-52
-47
-25
-2
3
-16
-27
-14
2
4
-13
-36
-48
-36
-20
-13
-16
-29
-34
-35
-36
-38
-47
-56
-50
-38
-39
-47
-51
-60
-56
-21
32
107
186
240
262
272
332
421
497
466
342
218
135
107
95
71
19
-45
-93
-104
-82
-62
-55
-58
-60
-62
-67
-65
-43
-36
-63
-90
-99
-101
-103
-99
-87
-75
-57
-55
-79
-114
-121
-96
-76
-85
-111
-132
-135
-128
-122
-118
-120
-129
-123
-98
-80
-103
-136
-131
-105
-82
-82
-90
-81
-57
-34
-33
-48
-64
-64
-56
-48
-30
-9
-3
-13
-16
-16
-8
4
0
-21
-32
-12
8
6
-11
-25
-27
-22
-12
-4
3
1
-11
-34
-47
-41
-22
-9
-9
6
17
2
-22
-21
-4
6
4
-4
-5
-10
4
46
100
98
47
15
32
68
83
81
81
89
79
56
49
57
63
52
40
36
47
57
36
11
-2
3
17
39
55
50
45
36
18
-3
-10
-1
14
33
88
177
254
308
345
407
476
558
605
588
497
330
204
155
159
134
77
21
-6
-4
6
7
-6
-23
-31
-21
-5
0
-10
-15
-8
-7
-16
-26
-23
-13
-19
-33
-45
-41
-33
-37
-47
-60
-66
-59
-46
-45
-54
-54
-53
-56
-63
-64
-59
-46
-44
-58
-63
-59
-44
-25
-4
1
-6
-10
-4
4
5
14
23
19
20
32
40
42
52
62
75
73
69
80
105
107
78
51
51
66
78
79
66
54
48
55
82
100
107
86
40
3
22
62
69
64
69
76
70
62
61
73
89
87
71
48
52
84
134
187
182
114
40
46
107
151
145
112
98
109
133
129
117
101
62
19
25
78
99
89
72
83
100
105
91
59
50
62
75
93
118
124
129
182
318
479
557
555
548
614
684
692
608
442
309
223
187
157
131
98
64
37
0
-20
-21
-1
40
72
58
7
-13
11
33
5
-29
-27
13
45
24
-25
-50
-33
-15
-4
6
-1
-25
-37
-17
-1
-19
-37
-32
-11
-16
-45
-54
-19
30
51
25
-13
-16
2
19
39
78
100
80
63
74
97
106
111
114
114
117
138
176
180
156
146
175
184
179
188
213
216
183
133
102
132
188
210
190
149
116
105
122
138
150
145
123
99
80
78
88
113
122
106
99
109
100
69
75
109
136
126
102
94
124
178
194
185
187
204
179
114
108
146
149
114
114
141
155
148
138
143
149
144
125
127
127
115
121
132
120
87
79
127
197
215
196
244
382
526
588
604
622
695
743
697
558
401
304
230
184
148
126
118
104
69
24
12
30
66
80
60
59
76
92
83
75
57
30
22
51
96
96
67
42
40
40
39
43
28
3
0
18
18
8
21
38
40
22
8
1
-1
30
84
102
60
22
39
80
67
37
48
74
72
59
81
126
142
118
125
161
187
189
162
142
125
115
105
108
124
153
193
226
245
209
140
76
65
74
84
112
142
170
165
125
64
38
82
127
113
51
31
66
132
184
172
129
94
96
129
200
217
155
97
105
147
169
198
214
192
176
188
172
99
59
97
161
179
160
138
112
97
105
129
121
79
45
56
92
98
81
76
100
108
105
106
118
155
219
311
430
564
642
664
691
739
735
649
546
435
351
271
191
122
92
96
71
15
-47
-77
-67
-38
-23
-46
-71
-78
-78
-81
-76
-63
-66
-93
-127
-138
-115
-91
-84
-119
-167
-183
-157
-112
-115
-185
-260
-264
-226
-199
-190
-197
-206
-217
-212
-200
-185
-171
-153
-134
-140
-160
-185
-193
-186
-145
-100
-116
-175
-176
-111
-97
-140
-163
-138
-115
-126
-138
-127
-122
-143
-144
-111
-90
-112
-164
-192
-189
-185
-177
-147
-146
-192
-236
-241
-213
-210
-237
-249
-229
-206
-216
-256
-299
-296
-256
-214
-211
-242
-289
-323
-299
-257
-249
-273
-275
-262
-265
-281
-295
-276
-250
-225
-219
-244
-294
-322
-295
-274
-292
-329
-342
-338
-333
-321
-327
-341
-346
-324
-329
-375
-417
-418
-393
-387
-380
-373
-339
-298
-253
-186
-89
25
124
198
232
246
239
176
52
-77
-175
-228
-269
-324
-398
-463
-493
-471
-436
-426
-484
-540
-534
-502
-496
-539
-556
-548
-524
-525
-531
-528
-527
-513
-511
-512
-537
-561
-591
-595
-577
-581
-586
-602
-595
-600
-598
-605
-606
-585
-576
-573
-611
-645
-667
-640
-606
-597
-583
-582
-576
-582
-580
-572
-551
-536
-544
-543
-539
-528
-531
-526
-527
-525
-496
-479
-484
-507
-507
-492
-473
-479
-504
-519
-536
-536
-523
-492
-478
-475
-484
-507
-514
-524
-518
-513
-501
-520
-564
-566
-548
-526
-526
-518
-518
-523
-518
-515
-503
-505
-510
-523
-496
-456
-438
-449
-482
-504
-518
-482
-450
-429
-434
-455
-484
-518
-524
-506
-464
-470
-491
-494
-494
-508
-520
-497
-502
-523
-538
-515
-470
-455
-466
-493
-496
-487
-443
-372
-276
-192
-106
-13
73
152
203
177
88
-19
-114
-195
-248
-305
-361
-409
-447
-478
-487
-477
-497
-516
-529
-514
-497
-488
-492
-513
-514
-522
-509
-507
-512
-510
-498
-480
-482
-483
-509
-512
-506
-496
-485
-496
-524
-563
-541
-499
-460
-463
-497
-521
-516
-468
-430
-419
-445
-462
-461
-448
-425
-417
-415
-403
-361
-335
-314
-297
-305
-325
-329
-285
-224
-189
-227
-306
-349
-319
-265
-222
-184
-176
-208
-240
-241
-216
-197
-190
-194
-202
-224
-235
-217
-189
-188
-218
-221
-199
-186
-178
-149
-141
-178
-217
-242
-233
-213
-190
-166
-140
-121
-117
-120
-138
-142
-113
-68
-33
-35
-93
-139
-97
-21
-10
-58
-92
-72
-30
-14
-37
-73
-100
-111
-107
-77
-34
-14
-37
-84
-98
-62
-33
-45
-68
-84
-92
-68
-16
40
77
126
192
307
410
482
543
624
675
642
540
409
298
221
182
151
105
36
-36
-78
-67
-24
13
24
5
-30
-36
-11
22
42
31
-8
-33
-21
1
13
0
-34
-53
-34
1
14
1
-15
-18
-6
11
14
1
-16
-35
-52
-53
-21
35
75
64
16
-5
32
99
134
137
124
122
125
135
150
165
189
211
237
254
259
253
252
269
269
271
277
299
305
308
318
338
350
320
284
264
273
288
313
334
316
275
245
256
269
283
293
280
271
269
269
263
275
278
277
287
295
299
295
308
316
324
323
344
371
369
340
303
302
320
359
372
334
269
249
285
296
279
262
270
286
296
307
305
317
323
331
332
310
260
252
316
366
388
406
460
550
672
813
906
955
943
967
988
940
801
640
542
495
473
430
370
295
248
257
252
210
161
157
185
236
264
227
160
137
180
206
191
152
140
151
154
156
167
180
164
142
135
148
141
97
57
59
96
117
116
100
69
42
40
70
106
146
162
142
108
108
140
160
191
206
188
174
212
256
260
245
231
255
295
321
298
254
229
224
247
266
295
292
258
233
237
259
266
268
248
221
208
209
214
214
211
183
163
171
206
228
224
200
179
181
186
193
192
188
196
218
239
246
257
250
240
233
234
221
212
234
243
229
206
206
216
233
240
218
168
114
122
171
199
196
190
198
187
174
168
178
172
151
144
149
158
179
253
352
481
590
660
704
739
802
829
822
723
544
367
269
248
212
149
89
58
37
28
39
26
-16
-53
-53
-23
6
12
-5
-36
-73
-69
-23
12
-17
-81
-103
-75
-55
-79
-119
-132
-113
-77
-62
-82
-119
-136
-141
-148
-155
-155
-124
-78
-68
-119
-169
-154
-93
-52
-49
-54
-51
-50
-69
-75
-54
-36
-41
-43
-15
19
39
21
2
-5
-20
-28
-10
16
7
-24
-28
7
26
2
-38
-74
-97
-109
-112
-95
-73
-66
-99
-146
-164
-126
-82
-84
-111
-141
-169
-182
-157
-109
-63
-28
-37
-96
-138
-126
-90
-39
7
-6
-75
-116
-79
-16
13
10
10
-8
-43
-68
-64
-52
-63
-89
-98
-81
-78
-98
-106
-84
-67
-77
-100
-115
-119
-113
-109
-111
-112
-96
-66
-22
16
79
168
285
380
462
528
553
552
516
464
347
189
37
-79
-131
-144
-177
-223
-249
-236
-211
-183
-187
-249
-326
-349
-303
-276
-295
-328
-317
-278
-270
-297
-324
-316
-303
-284
-268
-266
-285
-314
-330
-346
-353
-344
-323
-309
-303
-293
-288
-297
-315
-317
-306
-294
-278
-244
-228
-276
-329
-327
-277
-229
-197
-188
-198
-196
-182
-171
-153
-133
-144
-166
-145
-103
-99
-134
-158
-163
-143
-115
-109
-122
-123
-105
-111
-141
-160
-153
-134
-120
-113
-120
-129
-135
-145
-153
-140
-115
-115
-132
-155
-158
-129
-85
-80
-120
-156
-145
-107
-76
-56
-55
-66
-66
-47
-14
19
38
14
-35
-50
-27
-9
-22
-64
-114
-128
-99
-67
-74
-82
-87
-108
-132
-130
-116
-133
-156
-145
-105
-78
-91
-126
-153
-141
-112
-86
-52
10
99
211
314
405
462
508
575
603
582
478
358
247
137
58
17
-10
-73
-148
-204
-243
-234
-188
-167
-205
-266
-289
-274
-247
-243
-256
-263
-260
-250
-250
-266
-293
-309
-305
-294
-291
-308
-335
-365
-371
-364
-344
-329
-351
-391
-404
-370
-333
-311
-326
-360
-379
-375
-346
-310
-268
-242
-233
-248
-246
-220
-210
-222
-219
-174
-126
-127
-176
-196
-157
-117
-118
-138
-130
-106
-82
-69
-66
-92
-130
-129
-112
-127
-156
-136
-92
-104
-164
-205
-184
-144
-131
-161
-204
-211
-187
-159
-167
-194
-212
-194
-162
-159
-188
-195
-166
-136
-124
-121
-116
-109
-98
-89
-81
-59
-39
-45
-67
-74
-92
-134
-151
-122
-89
-99
-119
-105
-77
-100
-164
-177
-136
-95
-105
-145
-179
-172
-137
-116
-124
-149
-164
-148
-93
-5
91
194
304
366
388
422
495
550
495
375
230
136
80
28
-37
-159
-304
-389
-362
-280
-258
-310
-367
-390
-374
-336
-290
-290
-323
-356
-363
-344
-319
-324
-366
-378
-351
-329
-353
-399
-407
-370
-334
-313
-297
-329
-405
-445
-407
-349
-330
-323
-325
-322
-333
-372
-417
-411
-342
-292
-278
-281
-270
-241
-217
-223
-248
-232
-194
-158
-139
-122
-117
-139
-174
-190
-165
-128
-108
-126
-142
-122
-105
-123
-139
-140
-153
-173
-171
-135
-95
-107
-193
-266
-254
-205
-173
-141
-95
-92
-158
-224
-228
-178
-133
-105
-95
-100
-113
-120
-111
-72
-4
25
-37
-140
-179
-133
-70
-36
-31
-40
-57
-58
-61
-71
-85
-110
-134
-131
-105
-106
-127
-117
-86
-83
-125
-158
-156
-143
-139
-132
-111
-97
-84
-63
2
124
235
267
263
305
409
487
512
476
403
299
164
83
58
45
-16
-106
-176
-201
-184
-158
-154
-172
-197
-216
-235
-254
-251
-214
-176
-178
-182
-164
-148
-161
-200
-224
-236
-245
-258
-251
-228
-205
-204
-222
-234
-239
-236
-230
-208
-202
-213
-215
-195
-163
-161
-180
-202
-201
-177
-136
-89
-58
-49
-42
-35
-31
-29
-40
-51
-57
-51
-31
-11
21
63
94
102
86
38
13
40
84
95
64
33
27
39
25
-3
6
48
47
0
-21
-5
28
39
2
-57
-65
-14
28
40
36
19
-27
-49
12
72
59
12
32
85
112
102
83
61
46
80
136
171
153
127
129
159
188
168
132
115
122
134
142
134
108
104
127
140
121
120
150
184
196
192
179
149
140
153
172
190
235
313
393
460
518
595
660
707
712
702
678
598
485
369
337
335
299
228
169
154
161
171
155
115
72
66
100
125
129
119
108
84
70
88
106
106
92
100
103
90
70
76
111
134
125
83
39
26
56
100
115
107
84
59
26
39
104
151
139
119
139
163
159
143
167
220
256
247
222
229
270
313
293
253
248
284
319
323
318
321
353
380
401
405
383
351
333
355
375
383
378
371
361
355
366
375
377
348
297
253
259
306
334
340
310
272
248
263
309
345
382
381
367
346
329
312
314
339
367
393
371
347
347
376
382
348
320
298
280
255
263
281
289
290
288
287
294
331
335
308
273
265
276
279
273
265
286
314
346
390
457
532
590
645
679
693
672
671
673
632
558
487
447
390
348
310
270
227
199
207
219
236
250
255
238
204
181
191
223
230
231
234
234
232
219
195
166
188
224
235
213
195
203
210
207
187
195
229
248
209
146
128
170
238
272
267
233
230
262
273
273
278
304
321
317
268
250
296
350
378
376
374
363
380
398
401
389
368
364
357
378
404
424
413
378
355
355
380
368
340
333
362
389
372
338
315
337
349
339
315
306
321
329
344
348
347
323
322
352
377
379
339
312
314
351
384
403
405
378
364
347
345
347
369
380
371
354
324
316
310
316
327
349
363
358
355
324
292
267
280
296
294
271
266
306
362
428
476
500
493
496
519
537
549
532
505
453
418
382
327
273
238
224
203
192
193
192
174
151
160
178
179
145
118
116
132
144
138
139
144
154
156
142
108
69
62
83
108
108
97
90
88
98
102
94
74
73
89
106
117
106
79
66
94
124
127
112
119
131
128
130
139
150
160
175
187
197
201
199
202
208
224
223
209
190
183
192
197
195
179
174
170
177
182
180
175
164
163
159
153
140
128
126
120
124
120
114
112
116
119
111
115
126
146
145
122
95
100
129
151
157
141
134
141
161
173
172
168
160
150
122
109
115
129
127
113
106
99
98
95
94
91
92
99
105
108
93
75
67
67
63
68
82
106
149
190
224
245
263
279
294
309
311
312
295
268
218
169
128
110
96
70
43
22
4
-20
-34
-30
-31
-34
-29
-3
11
-5
-46
-88
-85
-45
-17
-30
-60
-72
-59
-35
-21
-15
-9
-2
1
1
-2
-11
-18
-27
-35
-38
-28
-27
-46
-47
-16
11
20
12
-16
-37
-15
30
50
16
-44
-69
-33
18
53
62
55
42
26
9
9
32
46
32
9
2
12
19
30
23
-1
-22
-26
-21
-14
-14
-37
-69
-74
-56
-43
-42
-42
-48
-63
-80
-88
-78
-53
-29
-40
-66
-82
-71
-54
-47
-31
-17
-11
-20
-29
-28
-25
-38
-52
-48
-44
-37
-23
-18
-35
-53
-57
-54
-50
-49
-56
-83
-110
-109
-97
-89
-94
-103
-100
-81
-63
-71
-108
-127
-101
-66
-40
-15
16
37
55
76
96
107
115
125
116
96
60
31
11
-6
-46
-118
-172
-168
-140
-136
-165
-192
-187
-162
-153
-168
-180
-199
-209
-209
-192
-184
-180
-178
-181
-188
-206
-210
-213
-202
-201
-228
-254
-257
-231
-217
-217
-237
-245
-225
-216
-236
-261
-248
-228
-213
-211
-216
-213
-202
-180
-170
-171
-180
-184
-179
-168
-156
-153
-159
-170
-168
-149
-121
-98
-91
-111
-150
-168
-150
-120
-104
-108
-123
-130
-133
-141
-151
-141
-116
-104
-104
-117
-128
-129
-138
-154
-162
-151
-135
-136
-146
-157
-158
-152
-144
-148
-148
-137
-124
-119
-126
-127
-120
-100
-85
-83
-85
-88
-89
-88
-80
-76
-77
-86
-97
-106
-111
-108
-100
-100
-116
-145
-164
-157
-137
-134
-135
-146
-165
-176
-166
-155
-148
-146
-158
-173
-168
-145
-113
-79
-49
-20
7
21
25
27
32
29
17
-11
-46
-75
-93
-107
-139
-189
-243
-279
-279
-268
-272
-292
-300
-290
-288
-288
-299
-300
-301
-302
-304
-309
-309
-317
-317
-327
-335
-337
-328
-328
-358
-379
-385
-364
-351
-336
-330
-336
-349
-364
-361
-357
-350
-355
-349
-339
-323
-306
-305
-304
-303
-279
-264
-273
-308
-323
-299
-264
-237
-233
-235
-236
-234
-228
-216
-204
-202
-207
-225
-242
-245
-242
-230
-220
-214
-216
-222
-237
-247
-246
-240
-230
-224
-222
-238
-246
-260
-282
-300
-303
-277
-253
-241
-253
-258
-251
-243
-244
-254
-249
-244
-234
-232
-237
-242
-243
-224
-211
-204
-211
-218
-225
-224
-214
-215
-219
-232
-244
-258
-258
-255
-254
-246
-244
-241
-255
-263
-267
-265
-256
-245
-238
-242
-249
-252
-232
-202
-157
-122
-99
-76
-52
-37
-31
-24
-23
-32
-55
-92
-125
-152
-178
-205
-234
-258
-273
-275
-287
-310
-341
-346
-334
-330
-341
-355
-341
-346
-368
-393
-384
-368
-364
-361
-372
-364
-359
-356
-366
-361
-359
-387
-416
-434
-413
-393
-392
-422
-442
-427
-402
-378
-378
-394
-412
-396
-357
-333
-328
-336
-331
-335
-334
-335
-329
-313
-291
-267
-258
-258
-254
-232
-215
-220
-233
-239
-244
-250
-245
-234
-222
-236
-262
-270
-267
-256
-253
-268
-300
-328
-324
-316
-315
-325
-314
-302
-308
-350
-388
-369
-331
-303
-312
-320
-339
-342
-332
-336
-355
-368
-338
-304
-280
-252
-208
-155
-118
-96
-85
-72
-61
-58
-66
-93
-139
-186
-235
-276
-293
-313
-348
-380
-391
-388
-398
-404
-414
-404
-385
-378
-402
-440
-441
-412
-385
-397
-415
-417
-415
-417
-435
-442
-464
-484
-493
-487
-496
-500
-482
-474
-475
-488
-485
-479
-485
-491
-502
-489
-478
-462
-456
-442
-432
-440
-437
-425
-413
-428
-413
-385
-367
-363
-365
-347
-340
-343
-358
-354
-349
-341
-324
-320
-327
-352
-356
-347
-323
-316
-322
-322
-318
-324
-360
-394
-398
-367
-323
-312
-342
-382
-387
-367
-341
-346
-366
-372
-360
-337
-322
-308
-309
-322
-332
-328
-312
-306
-313
-326
-335
-346
-340
-312
-287
-284
-307
-317
-316
-296
-279
-267
-260
-260
-244
-238
-256
-288
-287
-263
-244
-244
-260
-260
-261
-258
-257
-253
-257
-270
-272
-279
-281
-284
-281
-285
-296
-296
-290
-271
-267
-272
-274
-273
-299
-327
-324
-299
-258
-211
-162
-127
-90
-49
-11
14
28
33
34
31
15
-22
-71
-118
-159
-198
-227
-253
-269
-272
-282
-297
-317
-331
-344
-340
-322
-305
-307
-316
-317
-332
-345
-348
-330
-323
-322
-314
-318
-334
-366
-362
-356
-369
-400
-406
-376
-355
-340
-343
-354
-385
-402
-390
-375
-353
-340
-326
-336
-343
-332
-319
-312
-312
-297
-281
-270
-285
-284
-266
-258
-256
-245
-230
-247
-271
-271
-248
-225
-221
-222
-234
-248
-250
-236
-217
-203
-212
-231
-237
-237
-236
-233
-229
-232
-248
-255
-249
-239
-244
-248
-260
-271
-275
-272
-258
-242
-223
-225
-245
-261
-241
-202
-179
-178
-205
-214
-197
-172
-172
-178
-167
-159
-164
-175
-172
-171
-176
-181
-179
-173
-183
-208
-234
-229
-209
-208
-226
-236
-222
-211
-204
-208
-208
-200
-190
-184
-193
-208
-205
-166
-103
-26
36
78
99
123
151
174
181
166
125
55
-15
-72
-112
-146
-177
-195
-190
-178
-186
-220
-234
-219
-193
-176
-176
-191
-210
-202
-173
-147
-154
-168
-161
-140
-135
-149
-156
-153
-140
-130
-121
-118
-116
-110
-102
-84
-66
-54
-76
-111
-110
-70
-25
-5
4
14
22
23
22
37
70
106
127
124
115
106
106
116
127
144
165
187
195
192
188
176
163
156
170
174
163
148
141
158
172
182
169
148
140
153
164
156
156
145
132
127
142
150
148
142
140
155
164
165
146
129
124
129
146
160
176
174
178
197
219
231
229
228
214
198
185
190
191
193
201
193
163
128
136
152
150
134
125
127
135
147
146
139
136
144
146
126
101
97
120
131
137
168
219
269
305
332
341
353
359
362
352
328
290
243
216
196
185
157
105
52
31
46
53
42
36
48
62
64
63
39
14
12
22
24
29
32
12
-6
-4
3
-14
-30
-21
-3
0
-20
-42
-47
-47
-52
-57
-45
-37
-39
-41
-35
-16
-2
-6
-16
-19
-10
8
34
54
49
34
23
21
49
86
99
78
77
96
112
107
99
93
92
108
127
153
156
129
107
114
127
128
135
119
88
79
96
111
111
108
83
62
67
91
112
108
88
58
57
81
102
97
86
88
108
138
145
127
96
93
117
146
162
158
147
131
132
138
148
164
176
177
163
153
149
146
122
115
137
147
132
115
112
111
117
115
107
94
88
92
88
96
128
183
241
284
320
340
364
372
377
375
374
356
311
267
242
230
186
120
72
61
48
24
18
21
26
9
-19
-23
-3
22
32
23
0
-9
-2
-8
-26
-33
-24
-19
-26
-26
-23
-35
-68
-88
-89
-88
-91
-102
-118
-122
-98
-77
-85
-91
-73
-61
-75
-94
-111
-125
-124
-79
-13
20
-2
-33
-41
-34
-16
10
35
35
15
-3
-5
-2
8
40
62
68
48
24
8
10
25
25
18
24
39
32
26
16
-4
-20
-11
10
6
-26
-61
-63
-40
-28
-31
-32
-22
-23
-37
-45
-33
-19
-25
-34
-32
-20
-1
29
46
32
-7
-43
-50
-32
-10
-10
-18
-10
-8
-32
-57
-57
-44
-36
-33
-35
-58
-80
-77
-57
-44
-44
-56
-76
-108
-131
-117
-82
-70
-66
-36
36
120
184
235
259
288
301
306
293
255
190
114
55
19
4
-22
-81
-142
-165
-146
-126
-144
-177
-178
-151
-156
-198
-212
-177
-138
-141
-164
-190
-202
-196
-160
-142
-173
-210
-211
-198
-202
-186
-166
-181
-225
-241
-197
-169
-184
-205
-185
-175
-200
-213
-183
-138
-122
-133
-165
-191
-164
-100
-67
-74
-94
-107
-94
-74
-60
-43
-29
-34
-33
-22
-6
6
10
2
-18
-24
-3
27
26
-14
-45
-40
-6
16
16
-1
-30
-50
-69
-85
-79
-50
-28
-29
-37
-41
-53
-85
-89
-45
-11
-19
-32
-18
-13
-43
-68
-38
7
17
2
-5
5
13
12
18
39
47
20
-34
-39
10
36
17
-7
-20
-22
-6
4
-14
-41
-49
-36
-26
-23
-20
-17
-18
-21
-30
-34
-14
17
51
96
157
225
271
297
305
325
336
339
315
267
204
133
89
72
62
19
-55
-102
-110
-90
-76
-82
-102
-121
-121
-115
-105
-105
-104
-92
-91
-110
-124
-114
-96
-96
-117
-141
-155
-155
-142
-131
-130
-146
-176
-186
-167
-140
-131
-134
-141
-131
-109
-118
-166
-185
-153
-114
-87
-68
-60
-57
-40
-29
-60
-100
-85
-22
19
24
-7
-33
-27
-3
8
15
24
24
12
-10
-30
-35
-29
-27
-26
-22
-30
-33
-31
-24
-23
-31
-36
-45
-49
-52
-51
-55
-67
-85
-102
-93
-80
-83
-94
-93
-81
-66
-50
-42
-49
-74
-81
-59
-39
-40
-39
-26
-14
-11
-17
-19
-21
-26
-45
-68
-74
-73
-78
-80
-73
-63
-54
-42
-37
-49
-61
-49
-21
9
11
-24
-55
-69
-80
-83
-39
35
124
208
291
352
376
403
420
433
416
372
298
219
155
96
15
-68
-122
-138
-154
-170
-191
-208
-219
-228
-226
-231
-224
-224
-233
-260
-278
-270
-261
-252
-254
-247
-248
-254
-258
-260
-249
-252
-269
-294
-292
-279
-280
-287
-303
-315
-319
-298
-287
-290
-303
-317
-313
-286
-254
-236
-226
-227
-217
-191
-169
-163
-175
-183
-180
-162
-143
-133
-143
-156
-152
-132
-113
-100
-92
-91
-84
-79
-98
-132
-154
-148
-131
-124
-137
-158
-159
-155
-150
-149
-155
-170
-181
-185
-189
-184
-176
-159
-154
-171
-206
-215
-190
-169
-144
-123
-113
-116
-113
-109
-111
-102
-82
-53
-30
-11
-7
-27
-56
-73
-77
-79
-87
-96
-102
-103
-91
-71
-39
-28
-72
-134
-140
-107
-89
-88
-76
-56
-47
-50
-53
-31
26
75
118
181
293
381
422
444
448
446
404
334
246
164
107
70
48
13
-41
-99
-122
-90
-54
-56
-107
-154
-150
-121
-105
-103
-94
-80
-63
-45
-46
-82
-133
-168
-182
-149
-100
-81
-94
-117
-140
-157
-151
-140
-135
-148
-158
-152
-141
-128
-128
-131
-120
-88
-56
-46
-65
-79
-57
-11
2
-27
-46
-38
-8
25
49
58
58
52
36
19
31
68
80
77
81
97
114
114
97
76
79
91
103
109
94
68
37
11
-3
6
23
32
24
17
23
21
10
5
12
22
40
55
48
42
44
55
71
96
118
122
94
57
61
87
102
93
89
88
88
91
91
88
73
56
36
29
30
35
46
48
51
55
53
39
40
60
64
44
14
7
30
79
130
171
230
307
398
449
492
512
523
518
480
423
327
238
184
164
125
28
-56
-68
-34
-11
-10
-12
-17
-32
-56
-66
-58
-47
-49
-47
-24
-6
-27
-60
-65
-48
-49
-81
-130
-150
-128
-81
-43
-40
-69
-89
-83
-68
-55
-46
-39
-56
-111
-129
-75
-17
-10
-15
-4
13
11
7
18
48
77
91
80
50
42
65
96
102
93
88
86
93
110
146
168
172
156
151
151
131
107
98
117
129
135
139
141
139
123
112
123
150
157
137
110
96
104
102
88
70
74
96
127
152
162
144
105
84
96
126
149
155
149
135
131
136
148
138
117
116
134
132
90
42
14
21
51
82
97
94
79
66
69
82
94
91
76
49
22
22
38
81
143
212
270
320
399
469
532
552
573
567
534
454
323
220
157
117
67
19
-9
-21
-22
-17
-15
-45
-92
-118
-117
-104
-111
-110
-81
-50
-50
-89
-146
-175
-155
-132
-133
-137
-134
-114
-100
-110
-149
-191
-203
-182
-154
-146
-153
-161
-156
-128
-84
-71
-116
-182
-205
-170
-112
-69
-55
-60
-75
-80
-61
-34
-20
-9
12
28
47
67
79
56
36
61
83
86
73
70
69
76
96
121
132
120
107
99
92
78
78
81
83
94
108
102
58
9
12
60
106
110
88
47
23
38
74
94
88
68
65
86
105
112
119
141
154
130
67
25
49
89
109
109
106
102
106
120
115
78
28
19
40
52
47
37
35
32
34
44
53
51
39
25
14
20
44
94
151
223
304
375
447
489
539
569
593
578
522
430
299
198
146
126
83
19
-36
-68
-75
-80
-95
-118
-134
-138
-141
-141
-141
-143
-138
-122
-110
-134
-175
-186
-156
-131
-143
-160
-162
-146
-147
-175
-205
-205
-181
-167
-172
-188
-198
-197
-188
-172
-148
-132
-147
-186
-195
-159
-132
-129
-129
-113
-95
-79
-63
-47
-30
-13
-7
-36
-70
-50
8
35
22
25
52
70
62
50
39
43
61
71
72
70
76
81
90
88
68
40
12
6
22
46
61
71
62
34
10
1
9
22
29
22
28
49
68
79
86
89
82
82
92
118
146
138
87
43
57
90
102
78
59
65
79
80
72
73
59
24
-8
3
42
58
58
47
46
59
75
72
47
33
51
88
118
167
239
342
433
494
542
572
612
616
600
538
436
337
252
208
180
156
91
3
-56
-74
-65
-51
-55
-81
-105
-103
-98
-106
-116
-117
-111
-117
-130
-144
-149
-141
-117
-95
-103
-154
-210
-214
-180
-152
-150
-153
-155
-157
-173
-205
-213
-188
-161
-163
-187
-197
-183
-157
-153
-164
-166
-149
-135
-126
-116
-101
-80
-66
-63
-78
-85
-73
-44
-16
-5
-10
-24
-32
-30
-28
-40
-46
-22
10
14
-9
-24
-23
-15
-16
-24
-32
-38
-42
-60
-81
-85
-74
-64
-61
-58
-59
-64
-78
-80
-53
-26
-27
-46
-49
-32
-15
-4
-4
-23
-45
-49
-35
-16
-1
10
6
4
-1
-11
-32
-48
-56
-59
-53
-47
-66
-96
-102
-81
-73
-81
-88
-86
-82
-80
-83
-114
-148
-163
-128
-56
31
112
198
283
374
432
454
473
500
529
479
376
236
93
6
-32
-50
-90
-136
-148
-148
-176
-250
-312
-325
-310
-286
-281
-279
-279
-279
-293
-313
-305
-272
-247
-269
-314
-336
-319
-288
-277
-285
-315
-343
-362
-361
-348
-338
-337
-342
-350
-362
-360
-352
-337
-319
-304
-293
-292
-284
-280
-270
-252
-224
-210
-221
-242
-263
-241
-189
-141
-125
-125
-124
-116
-88
-48
-22
-32
-61
-92
-116
-141
-160
-123
-64
-51
-74
-83
-82
-92
-115
-137
-144
-144
-131
-120
-119
-121
-116
-106
-111
-135
-154
-145
-120
-114
-116
-101
-79
-94
-149
-183
-156
-104
-67
-50
-61
-92
-117
-121
-112
-92
-82
-86
-117
-144
-131
-84
-46
-76
-164
-242
-265
-223
-166
-141
-154
-174
-188
-200
-202
-195
-178
-165
-168
-202
-232
-224
-172
-71
55
172
265
323
369
420
430
419
397
380
301
152
14
-85
-145
-182
-203
-202
-218
-263
-321
-353
-362
-377
-367
-345
-323
-321
-313
-307
-316
-340
-369
-376
-378
-368
-356
-360
-369
-358
-324
-313
-325
-353
-369
-365
-351
-337
-342
-360
-387
-391
-370
-335
-318
-313
-304
-304
-306
-315
-304
-279
-232
-189
-177
-200
-241
-251
-229
-188
-155
-139
-133
-121
-105
-124
-173
-199
-156
-105
-100
-110
-103
-93
-108
-125
-135
-133
-127
-122
-112
-104
-108
-141
-180
-192
-174
-149
-146
-158
-171
-166
-160
-154
-137
-111
-104
-128
-147
-129
-89
-72
-83
-96
-100
-109
-111
-87
-60
-48
-50
-60
-79
-88
-79
-74
-79
-93
-106
-110
-94
-92
-111
-105
-66
-32
-60
-116
-134
-104
-78
-77
-81
-77
-59
-28
17
86
179
280
392
471
527
559
566
548
480
410
310
209
132
78
28
-34
-83
-114
-122
-124
-140
-156
-162
-167
-174
-180
-179
-183
-180
-176
-182
-193
-198
-198
-198
-200
-203
-205
-207
-199
-197
-210
-224
-225
-216
-217
-223
-224
-220
-216
-209
-192
-178
-184
-215
-236
-219
-178
-143
-128
-125
-121
-113
-98
-64
-27
-15
-46
-85
-78
-39
-8
13
33
38
28
21
34
44
46
54
70
85
93
90
60
14
-16
-4
28
40
32
26
36
50
49
28
8
2
0
-10
-24
-31
-28
-15
3
21
43
55
63
61
52
44
52
64
61
63
71
82
94
116
140
135
99
56
48
67
93
96
85
73
70
83
84
76
59
56
67
75
85
97
108
103
96
96
114
144
176
207
244
327
453
577
643
694
733
754
740
658
552
418
322
247
182
116
48
5
-20
-31
-39
-52
-73
-88
-97
-114
-137
-163
-192
-198
-180
-166
-167
-174
-178
-182
-181
-170
-143
-109
-93
-125
-181
-204
-186
-161
-159
-159
-154
-141
-142
-166
-183
-188
-179
-164
-151
-140
-125
-109
-102
-92
-77
-63
-54
-39
-31
-40
-47
-34
-17
-14
-12
0
13
21
29
39
54
66
72
63
52
54
62
67
72
78
70
56
50
47
45
43
51
57
55
48
30
13
16
45
60
61
64
70
60
41
52
80
103
107
110
110
116
141
148
136
123
135
149
157
168
167
165
159
162
154
145
140
143
141
121
96
81
94
113
126
127
123
128
131
139
140
142
132
115
122
168
234
308
396
488
581
632
666
687
703
696
622
512
376
297
256
231
197
144
100
69
61
52
41
26
24
27
17
8
8
21
24
6
-13
-23
-26
-25
-18
-15
-22
-28
-32
-42
-52
-52
-49
-53
-59
-63
-68
-79
-74
-62
-53
-49
-47
-40
-37
-27
-10
1
-1
0
17
44
62
73
78
62
59
82
109
121
132
149
159
162
162
170
172
172
176
190
203
208
201
185
185
189
195
191
184
183
180
181
171
164
157
165
166
161
158
148
150
158
172
168
162
180
203
211
178
154
170
216
234
230
231
232
241
245
259
262
262
255
245
246
236
232
213
192
180
179
181
176
176
174
174
166
168
173
172
167
160
160
152
142
123
121
149
196
260
346
450
543
618
661
705
746
762
728
630
517
396
311
227
159
117
92
70
46
28
7
-11
-28
-32
-25
-20
-18
-18
-25
-35
-41
-37
-34
-21
-20
-29
-48
-58
-61
-68
-77
-87
-89
-83
-78
-85
-92
-83
-73
-78
-95
-101
-88
-74
-69
-76
-71
-50
-28
-22
-29
-33
-24
-1
19
23
25
36
51
72
96
120
129
114
97
106
135
150
154
140
136
150
166
176
170
169
161
150
135
134
140
137
135
131
134
131
124
110
94
84
78
82
84
92
92
85
88
99
113
103
90
78
71
66
67
78
87
96
92
86
75
67
62
57
56
50
42
25
7
-5
-12
-6
-6
-17
-35
-40
-34
-29
-25
-22
-21
-30
-56
-85
-88
-58
-6
71
150
225
300
384
459
526
573
605
589
510
377
229
133
71
30
-16
-68
-113
-150
-170
-175
-185
-192
-193
-193
-212
-241
-241
-224
-210
-208
-210
-214
-214
-211
-213
-219
-224
-217
-219
-223
-231
-231
-232
-244
-240
-229
-213
-219
-230
-230
-214
-191
-181
-187
-211
-221
-215
-193
-176
-171
-157
-140
-127
-123
-118
-116
-111
-88
-67
-62
-72
-71
-54
-27
-14
-25
-41
-35
-23
-26
-37
-37
-26
-16
-20
-33
-34
-26
-25
-35
-54
-60
-64
-59
-54
-48
-48
-49
-50
-50
-53
-63
-78
-84
-81
-73
-62
-53
-49
-46
-43
-44
-44
-41
-37
-42
-36
-21
-17
-24
-28
-31
-37
-33
-36
-49
-67
-77
-84
-85
-74
-69
-77
-91
-93
-86
-77
-70
-69
-75
-85
-95
-101
-96
-80
-50
2
70
161
261
370
456
523
561
591
581
538
439
315
195
106
47
-3
-52
-99
-128
-141
-153
-168
-189
-209
-213
-210
-205
-218
-232
-228
-224
-219
-221
-218
-218
-219
-221
-226
-225
-229
-228
-230
-228
-235
-242
-248
-258
-262
-266
-261
-267
-264
-254
-246
-239
-237
-223
-210
-199
-198
-194
-180
-164
-156
-160
-153
-135
-110
-92
-88
-86
-77
-66
-57
-48
-40
-36
-32
-21
-14
-14
-21
-26
-35
-37
-32
-26
-26
-32
-38
-45
-50
-58
-59
-56
-67
-81
-85
-80
-74
-73
-76
-90
-92
-82
-72
-68
-62
-59
-60
-49
-31
-16
-10
-12
-17
-15
-10
-10
-3
1
-2
-2
5
14
13
3
-18
-43
-59
-60
-56
-62
-65
-63
-49
-42
-39
-36
-41
-64
-80
-76
-62
-53
-54
-58
-47
5
86
166
263
368
473
542
608
646
657
612
517
382
254
152
83
36
-11
-68
-113
-137
-152
-158
-171
-195
-222
-227
-219
-208
-207
-206
-205
-211
-214
-219
-213
-210
-212
-223
-237
-241
-244
-240
-247
-243
-241
-247
-255
-264
-258
-263
-258
-256
-255
-253
-248
-231
-220
-218
-232
-239
-241
-225
-194
-174
-172
-182
-181
-178
-172
-161
-138
-116
-116
-131
-141
-126
-103
-93
-96
-93
-93
-97
-105
-104
-97
-96
-103
-118
-124
-124
-135
-149
-160
-157
-152
-149
-157
-174
-182
-176
-162
-153
-159
-178
-183
-169
-154
-136
-127
-128
-141
-142
-132
-119
-106
-100
-94
-94
-87
-74
-62
-59
-64
-71
-69
-63
-63
-70
-85
-109
-130
-127
-112
-105
-109
-119
-122
-118
-108
-97
-90
-90
-100
-116
-121
-115
-102
-82
-46
19
103
195
297
383
452
488
539
557
531
431
278
129
37
-8
-43
-83
-122
-157
-175
-187
-195
-204
-215
-216
-218
-224
-241
-251
-244
-224
-217
-233
-238
-238
-234
-236
-233
-232
-237
-237
-249
-260
-273
-270
-266
-262
-262
-270
-276
-280
-271
-265
-258
-253
-249
-240
-230
-216
-212
-212
-219
-212
-184
-160
-154
-156
-154
-154
-143
-128
-113
-104
-97
-88
-84
-83
-77
-67
-66
-74
-82
-74
-62
-56
-62
-68
-72
-78
-80
-82
-88
-94
-100
-96
-104
-114
-120
-118
-113
-115
-114
-106
-99
-107
-117
-113
-101
-91
-91
-84
-77
-64
-55
-46
-34
-30
-39
-45
-35
-23
-23
-32
-36
-39
-36
-37
-53
-74
-86
-88
-87
-87
-88
-93
-98
-103
-100
-94
-90
-93
-97
-94
-94
-98
-105
-100
-77
-29
28
104
194
302
403
482
547
581
607
577
488
350
210
107
33
-20
-78
-142
-186
-212
-215
-221
-228
-242
-262
-269
-277
-272
-277
-282
-297
-302
-294
-287
-281
-292
-299
-312
-321
-326
-332
-333
-336
-324
-322
-322
-335
-351
-360
-364
-362
-359
-347
-340
-333
-327
-320
-308
-298
-288
-297
-300
-290
-267
-245
-224
-211
-201
-186
-179
-180
-174
-150
-131
-115
-103
-95
-95
-104
-114
-113
-101
-95
-98
-97
-94
-92
-96
-100
-105
-107
-102
-98
-106
-125
-129
-128
-128
-129
-129
-119
-108
-100
-107
-111
-114
-108
-93
-75
-59
-61
-72
-74
-58
-42
-45
-49
-48
-36
-16
1
-7
-38
-53
-40
-35
-41
-42
-45
-61
-80
-88
-84
-71
-64
-67
-73
-73
-68
-59
-49
-44
-41
-41
-48
-52
-30
26
92
188
296
421
501
564
623
671
692
641
539
392
249
151
87
39
-14
-68
-112
-144
-158
-172
-187
-204
-216
-225
-239
-244
-251
-248
-252
-255
-263
-267
-264
-265
-269
-279
-281
-282
-281
-290
-304
-313
-320
-313
-313
-306
-308
-313
-309
-305
-309
-324
-324
-311
-287
-266
-257
-260
-261
-257
-250
-223
-191
-173
-176
-174
-154
-124
-109
-130
-153
-132
-78
-44
-33
-31
-26
-18
-13
-6
-9
-1
22
56
62
24
-26
-47
-17
41
82
75
50
36
38
44
51
56
56
56
59
73
78
52
14
9
46
92
115
97
74
88
124
141
139
139
133
132
143
157
166
180
204
221
217
178
145
135
138
115
85
91
135
187
192
173
150
133
130
161
204
214
205
198
213
230
264
323
398
500
592
695
751
798
816
789
746
655
558
456
389
334
295
269
252
241
205
170
166
195
200
173
148
140
141
151
190
225
233
216
212
231
249
270
279
287
273
256
236
223
231
246
265
263
253
233
237
260
283
307
317
314
290
290
316
360
399
409
416
395
369
366
400
428
419
411
431
480
489
486
466
458
458
465
478
468
477
508
555
544
491
462
459
459
421
433
490
533
498
415
382
417
472
470
467
472
476
466
459
488
525
543
511
501
507
498
474
480
536
571
575
495
399
384
484
603
636
643
627
560
435
392
457
553
606
578
534
463
396
370
433
522
548
543
499
459
445
486
464
349
294
360
482
524
541
581
686
778
823
883
945
998
971
914
828
728
644
552
496
462
444
418
424
441
414
339
245
215
223
240
257
290
313
299
252
208
237
296
298
218
156
172
213
230
218
215
211
204
186
179
219
266
256
139
16
2
79
122
106
98
110
133
147
155
155
162
181
187
193
198
214
211
206
217
223
235
244
256
241
224
220
225
232
239
251
238
218
205
211
222
237
248
237
220
191
179
172
157
141
138
158
173
165
121
94
110
151
151
124
130
160
176
158
152
157
144
105
102
173
243
248
188
146
155
193
212
181
164
185
218
211
192
162
85
19
35
92
119
123
125
128
130
112
101
99
104
75
34
36
60
80
100
142
176
230
325
459
578
658
714
735
760
730
667
546
397
282
198
147
83
15
-29
-50
-68
-102
-133
-150
-146
-145
-173
-206
-205
-186
-174
-170
-191
-244
-277
-266
-243
-243
-251
-265
-293
-307
-302
-286
-293
-314
-326
-329
-344
-388
-397
-349
-306
-338
-381
-370
-341
-339
-356
-350
-332
-313
-316
-340
-346
-333
-308
-292
-276
-270
-281
-285
-259
-230
-224
-221
-217
-203
-208
-230
-247
-234
-201
-197
-196
-183
-176
-197
-210
-209
-212
-218
-243
-263
-254
-224
-215
-232
-243
-251
-256
-268
-277
-276
-256
-234
-230
-223
-210
-210
-230
-222
-195
-177
-170
-161
-161
-180
-185
-160
-133
-160
-219
-231
-200
-173
-181
-198
-221
-240
-258
-262
-255
-256
-257
-256
-241
-235
-242
-252
-248
-235
-251
-262
-258
-252
-248
-231
-173
-103
-17
96
208
292
349
406
460
448
372
223
90
31
-29
-144
-272
-330
-326
-305
-290
-325
-377
-390
-375
-371
-399
-416
-424
-432
-457
-464
-438
-404
-376
-369
-357
-377
-436
-491
-497
-470
-419
-359
-348
-400
-475
-505
-478
-434
-400
-397
-413
-435
-425
-396
-372
-360
-340
-332
-379
-421
-410
-343
-288
-284
-317
-351
-339
-312
-277
-258
-247
-256
-274
-279
-269
-242
-222
-205
-194
-189
-194
-196
-172
-149
-137
-141
-154
-170
-178
-168
-161
-160
-164
-155
-144
-138
-144
-152
-152
-147
-137
-130
-122
-118
-117
-120
-116
-103
-86
-71
-64
-60
-52
-43
-43
-37
-32
-34
-52
-63
-57
-42
-29
-33
-48
-70
-91
-101
-102
-97
-97
-99
-108
-114
-115
-116
-109
-107
-109
-116
-111
-108
-124
-141
-146
-121
-69
4
95
198
306
421
502
566
600
610
588
491
365
211
84
-8
-71
-116
-159
-206
-240
-262
-283
-311
-311
-299
-302
-315
-325
-325
-330
-336
-346
-348
-336
-338
-340
-335
-322
-335
-347
-350
-346
-350
-362
-361
-363
-364
-379
-385
-381
-376
-369
-364
-356
-359
-359
-363
-361
-347
-332
-316
-309
-296
-287
-271
-262
-257
-255
-251
-235
-221
-201
-184
-170
-161
-156
-149
-140
-116
-102
-104
-116
-121
-121
-120
-113
-109
-119
-136
-143
-143
-146
-149
-150
-149
-160
-176
-192
-199
-199
-194
-196
-202
-205
-209
-205
-197
-186
-166
-147
-143
-153
-157
-156
-148
-143
-138
-140
-143
-139
-127
-116
-113
-115
-122
-122
-123
-129
-135
-143
-148
-158
-173
-188
-197
-190
-194
-201
-210
-215
-227
-232
-231
-235
-241
-255
-263
-267
-251
-210
-152
-65
34
151
263
342
413
476
513
494
377
216
38
-90
-183
-260
-322
-369
-404
-417
-429
-444
-472
-494
-499
-495
-493
-499
-493
-490
-480
-475
-483
-508
-530
-519
-504
-489
-492
-494
-500
-506
-510
-521
-513
-517
-528
-540
-533
-524
-530
-533
-544
-531
-518
-495
-492
-492
-484
-478
-463
-462
-444
-433
-414
-400
-400
-392
-381
-350
-333
-322
-326
-321
-309
-300
-287
-288
-284
-283
-267
-257
-256
-261
-264
-261
-263
-258
-253
-249
-248
-245
-240
-253
-279
-305
-307
-297
-288
-281
-276
-270
-260
-247
-241
-242
-237
-228
-223
-215
-201
-188
-175
-169
-162
-156
-149
-141
-131
-122
-119
-121
-121
-115
-111
-116
-132
-147
-149
-153
-155
-164
-162
-156
-155
-152
-152
-148
-146
-142
-136
-132
-131
-137
-140
-144
-127
-79
0
101
211
332
436
505
566
597
590
513
371
219
79
1
-51
-97
-139
-178
-202
-208
-209
-214
-229
-239
-243
-240
-236
-234
-232
-230
-223
-222
-222
-225
-226
-230
-231
-223
-222
-223
-233
-244
-254
-254
-247
-252
-257
-262
-259
-257
-253
-249
-246
-237
-233
-221
-215
-205
-199
-191
-180
-173
-159
-146
-134
-126
-114
-98
-82
-70
-61
-53
-41
-31
-24
-17
-7
-1
4
9
15
17
15
15
21
25
27
20
12
0
-4
0
6
6
-1
-7
-14
-16
-15
-14
-18
-21
-18
-18
-16
-13
-8
-4
7
22
26
36
44
49
44
38
46
53
59
60
66
68
75
84
91
87
72
67
64
60
48
40
35
28
28
32
38
40
42
41
35
36
37
38
33
29
29
48
81
132
200
291
408
534
648
728
807
854
853
774
627
471
313
216
142
88
30
-28
-67
-92
-102
-109
-122
-135
-150
-156
-153
-147
-150
-156
-157
-158
-161
-162
-162
-165
-172
-173
-181
-185
-191
-192
-199
-205
-207
-212
-211
-215
-213
-213
-212
-212
-211
-205
-202
-193
-185
-173
-162
-153
-138
-128
-114
-103
-85
-74
-63
-53
-45
-33
-16
1
13
19
23
28
38
43
47
51
52
59
63
64
59
51
45
37
36
33
28
19
12
6
-4
-10
-14
-22
-32
-38
-39
-41
-40
-42
-40
-40
-40
-37
-34
-32
-27
-14
-2
6
13
23
32
23
19
26
43
54
60
60
50
46
46
43
28
8
-9
-16
-11
-7
-8
-15
-18
-15
-11
-7
-9
-11
-12
-11
-18
-26
-23
-2
39
101
182
281
387
489
574
633
689
707
675
569
414
272
158
92
32
-19
-75
-114
-131
-138
-148
-161
-172
-181
-188
-187
-187
-185
-185
-188
-187
-187
-189
-194
-199
-195
-191
-188
-195
-202
-213
-217
-220
-222
-220
-226
-223
-222
-216
-218
-215
-204
-194
-177
-166
-161
-164
-156
-142
-127
-111
-99
-89
-80
-68
-56
-43
-33
-26
-21
-14
-2
11
20
29
35
36
34
29
32
36
39
43
46
43
36
31
26
25
22
22
18
12
5
-5
-8
-8
-7
-12
-21
-20
-21
-17
-16
-10
-2
9
19
28
41
49
60
70
78
79
86
98
105
119
117
109
95
96
110
110
102
88
76
65
68
73
75
74
76
80
78
78
80
88
86
83
79
80
96
129
190
270
366
477
596
690
754
807
828
812
711
569
398
272
201
152
112
63
22
-9
-26
-37
-47
-67
-85
-94
-93
-91
-93
-99
-101
-110
-115
-118
-120
-121
-125
-127
-131
-136
-140
-146
-151
-157
-162
-170
-175
-171
-168
-169
-173
-167
-163
-160
-162
-152
-140
-133
-122
-112
-94
-85
-79
-72
-59
-40
-23
-8
8
22
33
40
48
59
66
73
82
92
96
97
101
107
112
106
102
102
106
102
97
99
92
90
83
73
60
52
47
50
53
48
48
45
41
39
40
46
50
57
61
70
75
86
97
96
100
105
116
118
121
123
127
131
125
123
122
126
118
108
98
88
81
77
78
76
75
74
70
67
64
70
76
75
67
63
61
58
59
73
120
196
295
407
527
634
727
808
867
874
788
651
468
319
201
120
65
13
-39
-88
-114
-125
-133
-148
-170
-193
-206
-211
-207
-212
-218
-221
-219
-221
-230
-238
-252
-259
-260
-252
-256
-266
-271
-274
-270
-276
-277
-291
-301
-299
-296
-288
-293
-287
-280
-268
-254
-242
-231
-227
-218
-209
-198
-193
-180
-166
-159
-150
-138
-122
-112
-94
-76
-64
-63
-63
-56
-46
-38
-36
-33
-28
-31
-40
-39
-30
-23
-25
-33
-49
-66
-74
-79
-81
-91
-100
-108
-115
-117
-119
-114
-115
-129
-145
-157
-148
-125
-105
-98
-98
-105
-110
-104
-87
-74
-68
-59
-50
-43
-35
-25
-13
-9
-11
-21
-32
-35
-36
-37
-40
-45
-50
-48
-46
-51
-54
-51
-46
-44
-44
-44
-42
-42
-45
-49
-51
-45
-28
4
58
145
257
376
471
539
587
634
658
623
513
340
190
84
35
-8
-52
-93
-129
-150
-160
-170
-183
-194
-197
-203
-205
-200
-200
-199
-200
-199
-204
-210
-210
-213
-212
-216
-217
-221
-224
-231
-237
-235
-236
-233
-236
-231
-234
-232
-225
-219
-208
-203
-192
-188
-177
-164
-149
-130
-122
-118
-112
-93
-76
-62
-50
-40
-27
-12
3
12
18
27
40
55
64
64
66
63
62
61
62
63
62
61
54
51
44
38
33
33
33
22
10
3
1
-2
-5
-4
-9
-8
-7
-7
-8
-2
6
7
12
15
25
29
30
31
45
61
67
72
70
74
79
87
92
89
84
80
83
81
76
67
58
53
47
43
42
44
39
35
28
27
29
30
27
26
25
16
12
22
48
94
166
271
382
502
602
681
741
784
782
710
572
392
250
146
84
30
-19
-69
-108
-131
-144
-156
-168
-174
-178
-186
-191
-187
-185
-184
-193
-195
-206
-209
-205
-207
-211
-220
-224
-224
-226
-236
-251
-257
-262
-254
-247
-239
-249
-263
-269
-271
-261
-255
-241
-243
-238
-224
-210
-194
-184
-173
-167
-153
-146
-138
-130
-117
-100
-85
-66
-53
-44
-35
-20
-6
2
-4
-9
-9
-7
7
31
51
45
36
29
26
20
10
2
0
1
0
0
3
4
-8
-15
-9
-11
-17
-19
-19
-18
-15
-5
5
12
9
10
18
29
37
36
33
30
34
39
44
43
44
40
29
20
16
10
-5
-22
-29
-37
-45
-56
-64
-69
-67
-63
-68
-69
-75
-86
-97
-107
-114
-122
-128
-127
-106
-70
-5
84
196
315
426
501
564
623
640
582
444
267
104
8
-53
-103
-147
-193
-233
-256
-268
-274
-290
-301
-305
-309
-310
-311
-310
-317
-317
-315
-308
-307
-308
-305
-312
-310
-321
-323
-331
-332
-332
-333
-320
-317
-314
-323
-322
-320
-312
-305
-304
-292
-289
-289
-290
-272
-253
-241
-232
-225
-212
-205
-200
-195
-190
-183
-176
-162
-144
-125
-115
-106
-104
-102
-107
-114
-114
-108
-101
-99
-100
-94
-88
-90
-98
-109
-118
-126
-132
-128
-128
-128
-133
-138
-138
-139
-144
-152
-159
-160
-156
-149
-139
-126
-118
-112
-109
-103
-95
-87
-75
-61
-53
-55
-52
-43
-35
-31
-29
-32
-36
-37
-45
-57
-72
-78
-80
-81
-84
-90
-90
-93
-93
-89
-83
-86
-91
-89
-85
-89
-96
-97
-91
-75
-37
27
121
222
339
439
521
577
629
637
592
473
320
169
66
7
-37
-80
-127
-162
-175
-180
-184
-193
-208
-213
-215
-212
-217
-220
-217
-215
-213
-217
-216
-218
-218
-223
-228
-232
-245
-247
-253
-256
-266
-271
-275
-282
-286
-295
-292
-297
-290
-284
-278
-270
-270
-261
-256
-241
-229
-213
-199
-186
-173
-161
-152
-146
-132
-117
-106
-97
-85
-73
-64
-60
-56
-49
-42
-39
-39
-36
-37
-40
-38
-35
-38
-46
-51
-52
-51
-52
-58
-66
-71
-70
-76
-83
-86
-86
-90
-95
-92
-92
-85
-79
-80
-79
-69
-55
-50
-50
-55
-53
-48
-41
-28
-17
-12
-16
-11
-5
0
-5
-10
-4
5
3
-9
-22
-31
-35
-37
-37
-38
-38
-33
-26
-19
-19
-21
-23
-29
-36
-37
-34
-32
-27
-15
25
99
192
307
423
548
632
706
760
806
790
704
560
410
282
189
116
53
-8
-61
-94
-114
-129
-140
-151
-170
-178
-177
-170
-177
-187
-190
-192
-195
-205
-209
-212
-209
-214
-223
-228
-236
-238
-247
-247
-246
-242
-243
-247
-246
-247
-241
-238
-231
-228
-230
-223
-218
-210
-204
-191
-183
-174
-162
-148
-140
-137
-130
-117
-104
-94
-84
-77
-69
-61
-46
-31
-24
-24
-24
-20
-21
-12
-9
-8
-8
-7
-7
-15
-21
-27
-30
-30
-32
-36
-39
-46
-58
-63
-66
-70
-75
-75
-69
-68
-66
-63
-56
-50
-42
-32
-27
-16
-7
3
14
26
28
31
37
40
39
35
45
52
59
54
43
34
28
20
8
-2
-14
-21
-20
-18
-17
-16
-19
-29
-24
-17
-18
-30
-38
-36
-18
14
58
126
216
321
414
478
543
595
639
630
567
440
296
178
108
67
34
-5
-48
-77
-85
-92
-113
-143
-149
-134
-128
-128
-124
-116
-120
-125
-127
-123
-115
-113
-112
-114
-111
-107
-110
-112
-119
-113
-107
-107
-125
-138
-139
-132
-120
-108
-101
-104
-104
-96
-82
-67
-55
-41
-34
-32
-28
-15
2
26
51
74
78
62
49
69
107
130
134
127
123
124
136
149
162
179
184
193
185
185
196
198
164
118
134
184
219
214
194
163
137
148
168
179
173
185
202
219
224
218
220
216
228
249
286
304
301
294
286
286
264
245
239
255
274
293
307
312
321
321
330
321
312
295
283
279
264
260
251
251
246
243
240
233
220
194
187
184
192
205
236
299
379
483
579
684
766
841
908
928
880
764
629
484
369
292
250
213
155
92
46
39
46
42
25
1
-10
-7
3
-4
-19
-26
-13
-3
-18
-33
-32
-21
-27
-50
-62
-59
-55
-67
-84
-96
-98
-90
-85
-80
-78
-87
-97
-99
-95
-91
-81
-69
-58
-49
-40
-30
-22
-15
-4
11
27
38
47
59
70
95
119
139
147
139
115
89
104
129
148
148
146
149
147
139
130
131
129
132
126
121
120
110
106
98
92
83
82
88
84
82
77
81
83
89
98
112
120
112
103
97
101
98
104
116
128
131
132
140
140
135
122
116
115
112
112
104
97
79
60
45
47
53
55
48
36
23
22
38
40
16
-12
-19
-4
6
4
-17
-28
24
136
277
388
484
543
605
667
724
735
656
507
329
187
101
45
-2
-42
-76
-113
-144
-151
-153
-156
-168
-169
-166
-164
-166
-180
-190
-194
-175
-160
-155
-161
-165
-164
-170
-186
-210
-217
-217
-219
-225
-233
-237
-245
-244
-251
-258
-259
-251
-240
-244
-253
-257
-249
-242
-232
-224
-218
-215
-218
-212
-203
-185
-165
-145
-132
-125
-123
-126
-129
-126
-116
-99
-85
-84
-82
-75
-63
-52
-53
-64
-84
-81
-66
-56
-56
-64
-73
-80
-84
-85
-75
-50
-32
-46
-90
-122
-132
-117
-86
-62
-55
-59
-64
-69
-57
-39
-22
-17
-16
-13
-4
9
23
34
35
28
19
24
39
49
40
16
-17
-48
-54
-40
-22
-18
-23
-27
-27
-29
-36
-35
-34
-40
-43
-39
-44
-49
-36
-2
58
131
231
349
452
528
570
629
661
652
575
438
287
167
100
65
35
-9
-63
-102
-110
-99
-98
-113
-127
-138
-135
-119
-105
-109
-126
-139
-141
-125
-116
-112
-120
-128
-140
-148
-148
-147
-145
-152
-157
-164
-164
-159
-161
-166
-174
-170
-167
-162
-158
-153
-146
-138
-128
-121
-113
-104
-86
-65
-50
-48
-48
-38
-21
-4
-6
-5
0
16
33
46
50
50
49
53
57
50
51
57
62
59
55
56
52
44
32
38
52
55
40
5
-15
-13
-8
-17
-16
-4
5
4
-2
-1
0
3
7
17
32
36
36
41
51
60
66
63
60
63
74
81
81
75
60
50
51
60
54
36
18
10
12
14
11
4
-5
-12
-12
-8
-14
-17
-10
-4
-10
-24
-24
-13
19
68
151
248
358
481
585
661
694
731
719
646
503
334
200
116
64
19
-33
-89
-134
-140
-139
-143
-165
-195
-201
-200
-195
-201
-198
-194
-198
-197
-201
-203
-219
-233
-241
-234
-233
-244
-247
-244
-237
-248
-262
-276
-284
-275
-268
-261
-267
-274
-277
-265
-251
-246
-242
-234
-222
-215
-204
-190
-172
-154
-141
-134
-128
-117
-105
-87
-72
-56
-48
-31
-22
-24
-30
-33
-26
-20
-15
-16
-18
-22
-24
-25
-27
-31
-42
-46
-48
-50
-55
-62
-71
-90
-108
-119
-122
-123
-134
-138
-138
-136
-134
-130
-127
-130
-130
-122
-113
-111
-108
-106
-102
-100
-102
-113
-120
-114
-106
-104
-107
-112
-114
-114
-116
-122
-127
-138
-149
-154
-160
-175
-197
-209
-207
-195
-185
-182
-183
-191
-201
-209
-205
-188
-157
-123
-65
5
110
222
334
411
458
519
548
536
436
278
118
-1
-68
-114
-159
-204
-252
-273
-282
-284
-305
-327
-338
-344
-335
-330
-322
-329
-346
-369
-385
-373
-368
-367
-380
-375
-374
-379
-395
-408
-399
-399
-396
-407
-413
-424
-434
-427
-414
-398
-397
-389
-385
-385
-390
-392
-382
-368
-343
-320
-298
-296
-303
-299
-279
-256
-252
-257
-264
-249
-221
-194
-189
-185
-170
-161
-164
-165
-156
-166
-176
-170
-156
-142
-137
-143
-170
-186
-190
-189
-180
-180
-186
-195
-192
-192
-200
-210
-213
-198
-189
-190
-207
-208
-195
-193
-191
-187
-172
-164
-150
-140
-130
-129
-128
-120
-104
-85
-80
-95
-121
-138
-130
-117
-121
-144
-162
-163
-156
-152
-149
-150
-149
-146
-140
-126
-117
-108
-113
-138
-169
-179
-154
-109
-59
-8
59
141
259
364
462
525
588
628
616
559
425
260
121
39
1
-44
-94
-139
-160
-173
-200
-227
-242
-234
-232
-248
-257
-256
-250
-260
-265
-275
-276
-274
-276
-276
-281
-281
-286
-288
-292
-287
-284
-293
-319
-355
-366
-360
-340
-333
-336
-337
-334
-323
-317
-300
-287
-273
-265
-263
-264
-259
-240
-211
-188
-181
-177
-172
-153
-135
-130
-132
-122
-92
-63
-49
-59
-78
-92
-87
-75
-65
-57
-59
-61
-61
-63
-64
-61
-53
-56
-71
-105
-130
-125
-117
-121
-132
-138
-145
-147
-149
-147
-143
-143
-140
-135
-123
-118
-122
-124
-117
-105
-98
-94
-86
-75
-70
-59
-39
-19
-25
-56
-91
-98
-84
-72
-82
-103
-120
-129
-132
-132
-130
-127
-133
-142
-146
-146
-152
-157
-155
-155
-154
-153
-153
-141
-111
-60
3
79
177
327
454
558
616
665
673
602
471
289
128
21
-52
-112
-178
-225
-246
-253
-259
-296
-340
-379
-389
-387
-372
-357
-371
-385
-396
-394
-400
-399
-406
-416
-407
-398
-384
-398
-425
-461
-482
-482
-471
-452
-447
-454
-486
-503
-489
-464
-450
-451
-446
-446
-433
-424
-404
-384
-386
-396
-392
-358
-318
-293
-301
-325
-326
-300
-273
-256
-244
-246
-249
-261
-256
-234
-213
-193
-180
-171
-173
-174
-175
-178
-176
-173
-185
-226
-241
-220
-194
-185
-196
-210
-226
-216
-204
-200
-228
-268
-274
-251
-223
-210
-187
-185
-217
-246
-246
-220
-188
-156
-148
-160
-176
-172
-146
-109
-84
-92
-125
-146
-139
-130
-138
-157
-172
-181
-191
-189
-175
-152
-146
-160
-168
-155
-140
-144
-159
-168
-176
-186
-185
-152
-99
-42
43
157
290
417
495
555
590
604
531
409
281
146
48
-15
-60
-100
-138
-167
-187
-198
-214
-234
-239
-238
-218
-201
-190
-200
-223
-252
-265
-241
-216
-217
-245
-260
-250
-236
-221
-212
-210
-218
-219
-214
-224
-253
-272
-270
-260
-242
-226
-213
-210
-209
-200
-176
-159
-153
-134
-121
-117
-114
-98
-78
-54
-34
-14
-4
-2
12
42
72
88
101
100
95
95
94
104
127
152
151
137
124
134
163
183
182
150
112
81
77
94
120
140
144
130
93
75
95
135
162
162
128
95
111
154
187
194
191
180
184
212
238
246
226
205
190
205
236
253
256
249
254
251
240
218
205
211
211
215
202
179
164
185
220
234
240
225
206
192
203
214
208
200
209
248
311
416
522
645
739
812
870
918
968
933
831
660
497
405
359
321
251
186
146
139
136
124
104
81
72
74
81
79
67
56
54
57
62
74
75
60
40
32
31
37
44
38
20
0
-4
9
18
9
-3
0
0
-3
-1
16
28
32
43
51
63
66
72
81
98
116
119
134
143
158
165
177
188
202
216
219
223
221
230
232
238
237
230
227
231
249
255
255
234
204
183
169
177
192
203
192
179
173
176
179
180
180
179
188
195
202
189
160
130
119
140
167
194
206
208
204
197
192
185
192
199
207
209
211
210
209
209
183
150
130
138
150
158
156
132
112
103
109
111
119
132
129
130
131
131
116
100
106
135
188
258
349
448
577
679
771
829
884
912
869
778
612
453
311
208
154
118
87
48
20
0
-18
-36
-55
-72
-80
-76
-72
-72
-72
-74
-97
-126
-128
-102
-84
-95
-116
-132
-141
-140
-129
-120
-122
-148
-177
-200
-209
-203
-187
-197
-212
-201
-178
-171
-193
-214
-214
-199
-172
-154
-150
-160
-168
-167
-154
-136
-112
-87
-64
-57
-60
-52
-42
-40
-53
-64
-67
-64
-53
-50
-46
-37
-30
-41
-58
-72
-76
-69
-69
-76
-87
-96
-93
-88
-86
-96
-108
-109
-110
-133
-168
-178
-157
-132
-130
-130
-125
-107
-93
-88
-95
-105
-95
-71
-58
-59
-60
-58
-47
-36
-21
-9
-19
-48
-86
-99
-87
-78
-88
-104
-117
-129
-138
-140
-141
-137
-129
-121
-121
-124
-132
-144
-148
-151
-148
-147
-123
-60
31
144
262
367
462
519
571
581
547
474
348
207
60
-47
-129
-189
-204
-202
-209
-226
-256
-288
-313
-310
-295
-278
-269
-276
-284
-297
-294
-285
-277
-287
-305
-306
-291
-280
-285
-289
-294
-304
-314
-316
-305
-299
-295
-299
-297
-288
-272
-258
-248
-253
-278
-288
-273
-243
-230
-221
-207
-196
-184
-176
-164
-151
-137
-123
-114
-113
-120
-117
-96
-71
-61
-51
-33
-16
-15
-20
-30
-56
-81
-78
-50
-32
-42
-59
-60
-47
-37
-26
-23
-38
-71
-92
-87
-62
-40
-36
-45
-52
-46
-24
-3
-5
-22
-24
-1
29
47
64
68
58
48
61
84
108
128
132
135
127
127
134
141
135
119
117
119
121
113
99
81
69
90
113
125
116
111
110
111
105
92
82
86
109
145
201
270
364
469
577
667
721
785
828
846
776
639
472
317
242
191
146
91
46
11
-19
-36
-43
-45
-54
-72
-83
-90
-93
-88
-77
-71
-72
-80
-86
-84
-87
-95
-104
-102
-97
-89
-77
-74
-84
-102
-120
-121
-109
-90
-72
-76
-120
-159
-144
-103
-80
-75
-72
-64
-53
-43
-24
-3
16
26
39
56
68
72
70
76
90
106
109
121
140
156
161
156
159
165
169
151
140
136
132
131
136
147
145
142
137
124
90
59
67
91
111
112
110
99
78
45
26
46
80
103
105
98
97
106
122
126
132
137
141
135
129
134
143
155
153
160
169
174
152
114
88
92
118
122
111
96
95
92
74
63
61
68
73
80
85
81
72
58
55
73
119
189
279
369
478
588
691
779
845
880
803
686
538
400
281
185
128
80
33
-14
-33
-28
-32
-66
-120
-155
-160
-150
-139
-139
-148
-164
-191
-204
-199
-194
-206
-220
-229
-233
-236
-241
-242
-257
-276
-293
-291
-276
-256
-251
-277
-314
-357
-357
-319
-283
-276
-287
-281
-268
-249
-236
-224
-223
-224
-213
-195
-173
-159
-143
-128
-116
-107
-101
-96
-88
-65
-46
-42
-57
-79
-79
-55
-36
-37
-55
-70
-74
-68
-73
-84
-88
-88
-92
-101
-108
-108
-101
-91
-99
-118
-140
-148
-139
-124
-110
-105
-104
-102
-99
-93
-88
-92
-95
-82
-56
-35
-36
-47
-53
-54
-51
-54
-61
-71
-78
-78
-82
-82
-87
-95
-109
-108
-104
-114
-120
-116
-105
-108
-110
-104
-97
-103
-120
-130
-126
-105
-71
-27
35
114
214
327
415
477
526
574
594
537
419
236
91
2
-43
-76
-107
-152
-204
-240
-239
-229
-232
-245
-253
-260
-272
-278
-278
-270
-264
-260
-265
-268
-263
-260
-256
-269
-281
-299
-315
-308
-302
-295
-300
-301
-308
-312
-309
-304
-296
-297
-298
-306
-294
-279
-260
-242
-234
-226
-234
-241
-244
-218
-186
-173
-164
-147
-123
-104
-96
-99
-111
-114
-101
-73
-53
-48
-52
-51
-43
-35
-30
-24
-25
-31
-41
-45
-38
-37
-38
-40
-42
-45
-47
-48
-53
-56
-44
-21
-28
-61
-90
-86
-66
-52
-39
-34
-25
-22
-16
-9
-3
1
7
19
25
29
30
41
48
54
52
36
27
26
32
28
22
14
-3
-10
-4
3
-1
-18
-32
-35
-19
-4
2
-1
-9
-22
-30
-25
-7
23
69
137
234
354
480
596
671
732
775
773
706
567
417
266
170
100
49
-2
-48
-77
-98
-124
-150
-162
-168
-172
-180
-186
-193
-196
-191
-181
-181
-189
-199
-194
-182
-188
-202
-215
-207
-202
-205
-215
-228
-234
-236
-232
-239
-243
-242
-242
-240
-239
-226
-216
-205
-201
-197
-186
-171
-156
-144
-126
-111
-101
-98
-85
-64
-52
-40
-25
-9
2
13
27
34
28
23
34
47
42
34
34
43
57
64
57
32
12
2
2
9
7
9
11
12
6
-8
-30
-49
-40
-17
-15
-43
-58
-40
-12
0
-4
-5
2
15
20
17
25
36
50
49
36
17
10
19
29
30
24
16
-2
-19
-29
-36
-45
-52
-52
-46
-41
-34
-40
-66
-92
-79
-46
-36
-58
-88
-106
-107
-81
-28
58
157
264
372
471
551
634
687
684
594
450
295
168
93
26
-46
-130
-182
-199
-201
-204
-209
-224
-235
-240
-234
-231
-238
-244
-242
-225
-227
-244
-260
-263
-258
-252
-244
-247
-247
-252
-251
-260
-266
-264
-261
-260
-275
-285
-297
-290
-284
-274
-252
-240
-234
-234
-234
-243
-247
-244
-237
-218
-201
-179
-163
-152
-142
-131
-127
-136
-141
-124
-97
-87
-81
-74
-73
-80
-77
-63
-64
-91
-117
-114
-95
-84
-93
-100
-105
-111
-119
-123
-121
-124
-124
-123
-126
-122
-120
-116
-109
-90
-75
-72
-85
-96
-86
-57
-27
-17
-17
-25
-27
-17
-1
16
22
28
23
17
11
11
14
11
3
-5
-7
-3
0
-7
-18
-31
-48
-51
-37
-21
-11
-9
-13
-19
-31
-40
-34
-14
27
95
191
302
410
503
574
650
705
706
612
468
306
195
120
71
29
-16
-57
-89
-101
-99
-100
-111
-131
-144
-139
-130
-124
-132
-133
-124
-107
-108
-131
-147
-147
-135
-131
-132
-134
-135
-130
-133
-140
-155
-164
-166
-163
-162
-162
-146
-136
-141
-163
-161
-140
-123
-114
-108
-100
-102
-100
-91
-69
-49
-40
-28
-7
12
23
32
39
43
39
28
24
47
73
83
76
62
54
52
65
74
74
69
61
52
44
49
56
62
58
46
27
6
-10
-14
-3
10
15
14
12
15
10
12
23
39
42
49
67
83
79
49
26
47
91
108
102
88
70
63
67
74
73
73
69
53
40
34
32
27
27
30
35
42
40
26
2
-13
-2
32
56
44
-2
-45
-39
10
80
157
250
354
462
566
646
723
767
770
689
548
380
251
159
104
62
6
-64
-106
-114
-117
-137
-170
-193
-206
-203
-199
-197
-208
-216
-220
-219
-217
-220
-221
-228
-232
-243
-252
-265
-279
-274
-272
-272
-285
-288
-288
-291
-293
-297
-293
-292
-279
-268
-254
-246
-256
-268
-269
-257
-248
-229
-205
-182
-163
-155
-157
-165
-164
-145
-112
-91
-83
-78
-72
-66
-62
-54
-44
-34
-30
-28
-31
-30
-35
-46
-54
-57
-51
-51
-56
-82
-110
-116
-117
-123
-128
-129
-131
-137
-140
-136
-122
-113
-122
-159
-178
-167
-158
-150
-135
-114
-114
-128
-156
-172
-157
-138
-125
-122
-121
-126
-132
-140
-149
-156
-166
-170
-178
-180
-185
-191
-195
-191
-177
-174
-180
-188
-193
-197
-192
-179
-175
-193
-236
-248
-206
-139
-89
-31
46
149
247
321
372
433
497
489
402
245
71
-61
-132
-166
-196
-228
-265
-315
-346
-357
-334
-328
-356
-396
-416
-403
-392
-371
-364
-366
-378
-390
-391
-395
-385
-393
-403
-429
-451
-459
-464
-458
-467
-457
-456
-448
-450
-458
-464
-471
-464
-454
-432
-444
-460
-463
-445
-425
-435
-440
-431
-404
-390
-377
-356
-337
-328
-337
-348
-348
-321
-296
-299
-325
-329
-294
-262
-253
-268
-279
-272
-269
-275
-288
-282
-273
-262
-255
-253
-272
-303
-320
-324
-308
-303
-303
-314
-312
-300
-298
-313
-337
-331
-313
-295
-288
-286
-276
-274
-266
-262
-246
-230
-231
-246
-249
-227
-216
-220
-236
-239
-233
-232
-236
-246
-255
-264
-270
-284
-292
-297
-289
-276
-273
-273
-276
-271
-263
-256
-249
-257
-283
-306
-284
-225
-144
-60
37
114
201
278
361
428
479
482
414
283
121
-23
-98
-132
-160
-199
-236
-265
-289
-299
-318
-324
-324
-318
-317
-314
-312
-318
-315
-320
-316
-322
-330
-353
-369
-360
-352
-336
-342
-351
-366
-373
-381
-392
-394
-397
-386
-387
-390
-399
-404
-399
-388
-375
-377
-376
-378
-365
-345
-328
-319
-325
-322
-311
-286
-266
-255
-253
-253
-242
-229
-212
-199
-194
-200
-194
-191
-202
-209
-189
-166
-164
-168
-168
-160
-158
-176
-202
-218
-200
-186
-187
-193
-197
-197
-206
-211
-221
-223
-222
-213
-203
-201
-200
-210
-212
-214
-198
-175
-159
-151
-147
-145
-148
-144
-145
-143
-135
-127
-119
-116
-113
-114
-115
-118
-124
-127
-130
-129
-135
-144
-145
-131
-117
-116
-136
-176
-226
-241
-206
-170
-161
-169
-182
-187
-183
-162
-126
-63
23
135
240
359
444
522
583
620
596
483
320
155
24
-53
-116
-166
-224
-270
-293
-299
-297
-309
-322
-352
-372
-379
-372
-356
-358
-349
-346
-337
-340
-343
-349
-353
-343
-346
-350
-358
-343
-337
-336
-340
-350
-351
-358
-351
-343
-327
-319
-312
-301
-290
-272
-258
-245
-236
-221
-214
-216
-215
-191
-158
-138
-122
-108
-88
-63
-46
-58
-80
-77
-44
-10
9
22
27
38
45
50
48
46
50
54
59
61
71
77
68
42
14
12
15
14
8
3
2
15
23
19
15
14
19
20
23
27
28
35
46
55
63
71
78
82
67
48
56
76
86
80
78
73
69
64
69
78
84
86
73
56
48
43
37
35
48
46
45
47
61
67
67
67
61
64
77
112
153
214
289
391
513
602
680
735
803
815
765
650
481
335
237
187
149
115
80
52
54
54
38
13
-4
-13
-19
-14
1
13
14
15
13
1
-10
-15
-16
-16
-6
9
12
-6
-25
-24
-15
-14
-24
-38
-44
-36
-28
-24
-16
-4
-1
2
20
40
50
52
57
71
88
107
116
130
136
141
153
172
191
192
204
216
238
250
263
271
269
268
271
285
286
290
294
311
325
328
334
337
353
368
399
412
424
443
465
482
459
449
452
470
464
460
472
478
491
495
519
536
540
516
509
535
560
582
577
586
587
594
604
615
634
645
660
654
654
641
633
627
621
631
632
632
616
621
643
655
638
592
584
604
636
625
600
590
601
654
700
774
854
971
1065
1125
1179
1212
1247
1212
1139
1012
880
775
700
665
612
562
504
481
468
460
439
402
381
371
381
378
378
375
373
376
375
380
370
366
355
352
346
346
352
348
353
349
350
342
334
324
320
333
337
346
338
336
327
317
322
338
356
358
367
368
372
382
398
421
425
433
428
434
445
462
476
472
477
468
473
475
484
486
483
489
481
483
472
475
462
453
448
446
448
436
436
421
416
404
396
389
376
372
361
363
358
362
363
364
360
349
358
366
377
376
386
395
405
417
424
446
474
519
546
560
564
563
571
563
563
546
536
523
516
516
511
513
506
511
511
515
516
516
519
505
499
485
477
461
466
497
536
608
683
788
869
943
988
1020
1052
1038
999
888
765
650
562
497
444
410
366
343
323
319
311
299
288
272
269
264
262
246
238
238
242
240
229
226
214
205
196
197
198
194
187
175
172
164
160
153
150
152
155
160
152
151
154
165
170
177
191
190
187
186
198
207
214
224
230
245
252
262
262
269
270
276
286
288
298
304
311
306
306
306
298
295
285
280
264
256
251
249
243
233
226
213
212
207
209
211
212
207
191
191
193
193
184
181
185
193
200
198
205
212
222
220
224
228
231
233
227
220
203
204
210
209
203
194
186
164
143
123
118
115
108
103
92
88
83
78
67
56
52
40
29
13
4
2
11
33
82
159
249
355
432
504
548
600
636
630
578
457
322
196
110
55
-6
-64
-113
-136
-143
-153
-166
-185
-199
-209
-209
-209
-214
-211
-210
-210
-222
-228
-234
-241
-242
-241
-238
-244
-252
-264
-272
-275
-271
-268
-272
-281
-290
-284
-276
-277
-280
-284
-283
-281
-269
-252
-240
-234
-231
-225
-216
-208
-205
-201
-191
-175
-169
-159
-147
-139
-132
-122
-105
-94
-85
-80
-77
-83
-93
-93
-79
-72
-84
-95
-93
-84
-77
-82
-86
-93
-100
-115
-135
-146
-150
-144
-141
-141
-154
-167
-166
-153
-136
-128
-122
-123
-119
-113
-110
-109
-102
-89
-73
-62
-61
-61
-53
-45
-50
-59
-68
-76
-77
-78
-77
-88
-107
-116
-118
-113
-118
-136
-144
-140
-130
-126
-127
-138
-147
-150
-146
-152
-158
-157
-152
-134
-93
-24
65
161
255
336
385
435
463
474
435
334
203
69
-16
-60
-99
-148
-208
-244
-257
-267
-273
-291
-301
-314
-310
-303
-303
-308
-313
-308
-306
-304
-314
-316
-323
-333
-336
-335
-331
-330
-323
-325
-332
-330
-317
-306
-316
-331
-340
-333
-326
-320
-324
-320
-307
-300
-291
-283
-269
-256
-245
-234
-229
-217
-197
-174
-159
-150
-146
-139
-126
-113
-104
-99
-97
-102
-97
-87
-81
-78
-74
-68
-72
-75
-82
-85
-93
-102
-108
-113
-114
-121
-125
-130
-137
-147
-154
-155
-158
-162
-163
-164
-158
-160
-163
-164
-164
-159
-145
-137
-141
-141
-132
-125
-122
-112
-101
-100
-97
-90
-84
-83
-85
-89
-89
-90
-91
-100
-113
-126
-133
-137
-140
-140
-152
-159
-156
-153
-149
-154
-157
-156
-153
-156
-165
-170
-168
-149
-117
-66
10
106
217
320
384
439
473
504
493
428
322
182
73
-6
-64
-113
-163
-206
-237
-252
-257
-271
-287
-311
-318
-316
-314
-314
-325
-334
-337
-322
-318
-325
-338
-349
-354
-354
-350
-361
-371
-376
-374
-376
-388
-395
-402
-398
-406
-419
-420
-414
-411
-411
-396
-384
-373
-374
-367
-361
-350
-333
-319
-304
-295
-275
-251
-232
-221
-218
-216
-223
-217
-205
-189
-188
-190
-184
-178
-171
-174
-176
-181
-175
-172
-182
-192
-203
-207
-215
-218
-226
-227
-228
-235
-240
-252
-259
-264
-261
-260
-269
-279
-288
-286
-289
-287
-286
-282
-279
-272
-265
-261
-259
-258
-248
-239
-233
-225
-215
-206
-206
-202
-206
-213
-218
-225
-234
-239
-241
-250
-257
-269
-276
-284
-282
-271
-271
-275
-285
-281
-280
-284
-291
-297
-288
-279
-249
-200
-125
-23
86
186
262
312
369
404
406
342
210
59
-80
-162
-209
-254
-294
-331
-349
-366
-382
-380
-378
-380
-405
-424
-427
-420
-411
-414
-415
-425
-426
-431
-432
-431
-428
-427
-432
-431
-442
-454
-461
-461
-458
-457
-455
-464
-459
-456
-448
-443
-442
-433
-424
-409
-404
-393
-390
-386
-373
-357
-338
-329
-320
-314
-298
-289
-276
-258
-248
-244
-248
-237
-229
-224
-220
-208
-196
-197
-194
-199
